# Partition function for "H2 (11)".
# Temperature range: 1-6000K.
#T,K           Q(T)

   1                 1.0000
   2                 1.0000
   3                 1.0000
   4                 1.0000
   5                 1.0000
   6                 1.0000
   7                 1.0000
   8                 1.0000
   9                 1.0000
  10                 1.0000
  11                 1.0000
  12                 1.0000
  13                 1.0000
  14                 1.0000
  15                 1.0001
  16                 1.0002
  17                 1.0004
  18                 1.0007
  19                 1.0011
  20                 1.0018
  21                 1.0027
  22                 1.0039
  23                 1.0054
  24                 1.0074
  25                 1.0098
  26                 1.0128
  27                 1.0163
  28                 1.0204
  29                 1.0252
  30                 1.0306
  31                 1.0368
  32                 1.0437
  33                 1.0514
  34                 1.0598
  35                 1.0690
  36                 1.0790
  37                 1.0898
  38                 1.1014
  39                 1.1137
  40                 1.1269
  41                 1.1408
  42                 1.1554
  43                 1.1708
  44                 1.1869
  45                 1.2037
  46                 1.2212
  47                 1.2394
  48                 1.2582
  49                 1.2777
  50                 1.2977
  51                 1.3183
  52                 1.3395
  53                 1.3612
  54                 1.3834
  55                 1.4061
  56                 1.4292
  57                 1.4529
  58                 1.4769
  59                 1.5013
  60                 1.5262
  61                 1.5514
  62                 1.5769
  63                 1.6028
  64                 1.6289
  65                 1.6554
  66                 1.6821
  67                 1.7091
  68                 1.7364
  69                 1.7638
  70                 1.7915
  71                 1.8194
  72                 1.8474
  73                 1.8757
  74                 1.9041
  75                 1.9326
  76                 1.9613
  77                 1.9901
  78                 2.0190
  79                 2.0480
  80                 2.0771
  81                 2.1063
  82                 2.1356
  83                 2.1649
  84                 2.1943
  85                 2.2238
  86                 2.2532
  87                 2.2828
  88                 2.3123
  89                 2.3419
  90                 2.3716
  91                 2.4012
  92                 2.4308
  93                 2.4605
  94                 2.4901
  95                 2.5197
  96                 2.5493
  97                 2.5790
  98                 2.6085
  99                 2.6381
 100                 2.6677
 101                 2.6972
 102                 2.7267
 103                 2.7561
 104                 2.7856
 105                 2.8149
 106                 2.8443
 107                 2.8736
 108                 2.9028
 109                 2.9321
 110                 2.9612
 111                 2.9903
 112                 3.0194
 113                 3.0484
 114                 3.0773
 115                 3.1062
 116                 3.1351
 117                 3.1639
 118                 3.1926
 119                 3.2213
 120                 3.2499
 121                 3.2784
 122                 3.3069
 123                 3.3354
 124                 3.3637
 125                 3.3920
 126                 3.4203
 127                 3.4485
 128                 3.4766
 129                 3.5046
 130                 3.5326
 131                 3.5606
 132                 3.5884
 133                 3.6162
 134                 3.6440
 135                 3.6717
 136                 3.6993
 137                 3.7269
 138                 3.7544
 139                 3.7818
 140                 3.8092
 141                 3.8365
 142                 3.8637
 143                 3.8909
 144                 3.9181
 145                 3.9452
 146                 3.9722
 147                 3.9992
 148                 4.0261
 149                 4.0529
 150                 4.0797
 151                 4.1065
 152                 4.1331
 153                 4.1598
 154                 4.1864
 155                 4.2129
 156                 4.2394
 157                 4.2658
 158                 4.2921
 159                 4.3185
 160                 4.3447
 161                 4.3709
 162                 4.3971
 163                 4.4232
 164                 4.4493
 165                 4.4753
 166                 4.5013
 167                 4.5273
 168                 4.5531
 169                 4.5790
 170                 4.6048
 171                 4.6306
 172                 4.6563
 173                 4.6819
 174                 4.7076
 175                 4.7332
 176                 4.7587
 177                 4.7842
 178                 4.8097
 179                 4.8352
 180                 4.8606
 181                 4.8859
 182                 4.9112
 183                 4.9365
 184                 4.9618
 185                 4.9870
 186                 5.0122
 187                 5.0373
 188                 5.0625
 189                 5.0876
 190                 5.1126
 191                 5.1376
 192                 5.1626
 193                 5.1876
 194                 5.2125
 195                 5.2374
 196                 5.2623
 197                 5.2872
 198                 5.3120
 199                 5.3368
 200                 5.3616
 201                 5.3863
 202                 5.4110
 203                 5.4357
 204                 5.4604
 205                 5.4850
 206                 5.5096
 207                 5.5342
 208                 5.5588
 209                 5.5834
 210                 5.6079
 211                 5.6324
 212                 5.6569
 213                 5.6814
 214                 5.7058
 215                 5.7303
 216                 5.7547
 217                 5.7791
 218                 5.8034
 219                 5.8278
 220                 5.8521
 221                 5.8765
 222                 5.9008
 223                 5.9250
 224                 5.9493
 225                 5.9736
 226                 5.9978
 227                 6.0220
 228                 6.0462
 229                 6.0704
 230                 6.0946
 231                 6.1188
 232                 6.1429
 233                 6.1671
 234                 6.1912
 235                 6.2153
 236                 6.2394
 237                 6.2635
 238                 6.2876
 239                 6.3117
 240                 6.3357
 241                 6.3598
 242                 6.3838
 243                 6.4078
 244                 6.4318
 245                 6.4558
 246                 6.4798
 247                 6.5038
 248                 6.5278
 249                 6.5517
 250                 6.5757
 251                 6.5996
 252                 6.6236
 253                 6.6475
 254                 6.6714
 255                 6.6953
 256                 6.7192
 257                 6.7431
 258                 6.7670
 259                 6.7909
 260                 6.8148
 261                 6.8387
 262                 6.8625
 263                 6.8864
 264                 6.9102
 265                 6.9341
 266                 6.9579
 267                 6.9818
 268                 7.0056
 269                 7.0294
 270                 7.0532
 271                 7.0770
 272                 7.1008
 273                 7.1246
 274                 7.1484
 275                 7.1722
 276                 7.1960
 277                 7.2198
 278                 7.2436
 279                 7.2674
 280                 7.2911
 281                 7.3149
 282                 7.3387
 283                 7.3624
 284                 7.3862
 285                 7.4099
 286                 7.4337
 287                 7.4574
 288                 7.4812
 289                 7.5049
 290                 7.5286
 291                 7.5524
 292                 7.5761
 293                 7.5998
 294                 7.6236
 295                 7.6473
 296                 7.6710
 297                 7.6947
 298                 7.7184
 299                 7.7421
 300                 7.7659
 301                 7.7896
 302                 7.8133
 303                 7.8370
 304                 7.8607
 305                 7.8844
 306                 7.9081
 307                 7.9318
 308                 7.9555
 309                 7.9792
 310                 8.0029
 311                 8.0266
 312                 8.0503
 313                 8.0740
 314                 8.0977
 315                 8.1213
 316                 8.1450
 317                 8.1687
 318                 8.1924
 319                 8.2161
 320                 8.2398
 321                 8.2635
 322                 8.2871
 323                 8.3108
 324                 8.3345
 325                 8.3582
 326                 8.3819
 327                 8.4055
 328                 8.4292
 329                 8.4529
 330                 8.4766
 331                 8.5003
 332                 8.5239
 333                 8.5476
 334                 8.5713
 335                 8.5950
 336                 8.6187
 337                 8.6423
 338                 8.6660
 339                 8.6897
 340                 8.7134
 341                 8.7370
 342                 8.7607
 343                 8.7844
 344                 8.8081
 345                 8.8317
 346                 8.8554
 347                 8.8791
 348                 8.9028
 349                 8.9264
 350                 8.9501
 351                 8.9738
 352                 8.9975
 353                 9.0212
 354                 9.0448
 355                 9.0685
 356                 9.0922
 357                 9.1159
 358                 9.1396
 359                 9.1632
 360                 9.1869
 361                 9.2106
 362                 9.2343
 363                 9.2580
 364                 9.2816
 365                 9.3053
 366                 9.3290
 367                 9.3527
 368                 9.3764
 369                 9.4001
 370                 9.4237
 371                 9.4474
 372                 9.4711
 373                 9.4948
 374                 9.5185
 375                 9.5422
 376                 9.5659
 377                 9.5896
 378                 9.6133
 379                 9.6369
 380                 9.6606
 381                 9.6843
 382                 9.7080
 383                 9.7317
 384                 9.7554
 385                 9.7791
 386                 9.8028
 387                 9.8265
 388                 9.8502
 389                 9.8739
 390                 9.8976
 391                 9.9213
 392                 9.9450
 393                 9.9687
 394                 9.9924
 395                10.0161
 396                10.0398
 397                10.0635
 398                10.0872
 399                10.1109
 400                10.1346
 401                10.1584
 402                10.1821
 403                10.2058
 404                10.2295
 405                10.2532
 406                10.2769
 407                10.3006
 408                10.3243
 409                10.3481
 410                10.3718
 411                10.3955
 412                10.4192
 413                10.4429
 414                10.4667
 415                10.4904
 416                10.5141
 417                10.5378
 418                10.5615
 419                10.5853
 420                10.6090
 421                10.6327
 422                10.6565
 423                10.6802
 424                10.7039
 425                10.7276
 426                10.7514
 427                10.7751
 428                10.7988
 429                10.8226
 430                10.8463
 431                10.8701
 432                10.8938
 433                10.9175
 434                10.9413
 435                10.9650
 436                10.9888
 437                11.0125
 438                11.0362
 439                11.0600
 440                11.0837
 441                11.1075
 442                11.1312
 443                11.1550
 444                11.1787
 445                11.2025
 446                11.2262
 447                11.2500
 448                11.2737
 449                11.2975
 450                11.3213
 451                11.3450
 452                11.3688
 453                11.3925
 454                11.4163
 455                11.4401
 456                11.4638
 457                11.4876
 458                11.5114
 459                11.5351
 460                11.5589
 461                11.5827
 462                11.6064
 463                11.6302
 464                11.6540
 465                11.6777
 466                11.7015
 467                11.7253
 468                11.7491
 469                11.7728
 470                11.7966
 471                11.8204
 472                11.8442
 473                11.8680
 474                11.8917
 475                11.9155
 476                11.9393
 477                11.9631
 478                11.9869
 479                12.0107
 480                12.0344
 481                12.0582
 482                12.0820
 483                12.1058
 484                12.1296
 485                12.1534
 486                12.1772
 487                12.2010
 488                12.2248
 489                12.2486
 490                12.2724
 491                12.2962
 492                12.3200
 493                12.3438
 494                12.3676
 495                12.3914
 496                12.4152
 497                12.4390
 498                12.4628
 499                12.4866
 500                12.5104
 501                12.5342
 502                12.5581
 503                12.5819
 504                12.6057
 505                12.6295
 506                12.6533
 507                12.6771
 508                12.7009
 509                12.7248
 510                12.7486
 511                12.7724
 512                12.7962
 513                12.8200
 514                12.8439
 515                12.8677
 516                12.8915
 517                12.9154
 518                12.9392
 519                12.9630
 520                12.9868
 521                13.0107
 522                13.0345
 523                13.0583
 524                13.0822
 525                13.1060
 526                13.1298
 527                13.1537
 528                13.1775
 529                13.2014
 530                13.2252
 531                13.2490
 532                13.2729
 533                13.2967
 534                13.3206
 535                13.3444
 536                13.3683
 537                13.3921
 538                13.4160
 539                13.4398
 540                13.4637
 541                13.4875
 542                13.5114
 543                13.5352
 544                13.5591
 545                13.5829
 546                13.6068
 547                13.6307
 548                13.6545
 549                13.6784
 550                13.7022
 551                13.7261
 552                13.7500
 553                13.7738
 554                13.7977
 555                13.8216
 556                13.8454
 557                13.8693
 558                13.8932
 559                13.9171
 560                13.9409
 561                13.9648
 562                13.9887
 563                14.0126
 564                14.0364
 565                14.0603
 566                14.0842
 567                14.1081
 568                14.1320
 569                14.1558
 570                14.1797
 571                14.2036
 572                14.2275
 573                14.2514
 574                14.2753
 575                14.2992
 576                14.3231
 577                14.3469
 578                14.3708
 579                14.3947
 580                14.4186
 581                14.4425
 582                14.4664
 583                14.4903
 584                14.5142
 585                14.5381
 586                14.5620
 587                14.5859
 588                14.6098
 589                14.6337
 590                14.6576
 591                14.6815
 592                14.7055
 593                14.7294
 594                14.7533
 595                14.7772
 596                14.8011
 597                14.8250
 598                14.8489
 599                14.8728
 600                14.8968
 601                14.9207
 602                14.9446
 603                14.9685
 604                14.9924
 605                15.0164
 606                15.0403
 607                15.0642
 608                15.0881
 609                15.1121
 610                15.1360
 611                15.1599
 612                15.1838
 613                15.2078
 614                15.2317
 615                15.2556
 616                15.2796
 617                15.3035
 618                15.3275
 619                15.3514
 620                15.3753
 621                15.3993
 622                15.4232
 623                15.4472
 624                15.4711
 625                15.4950
 626                15.5190
 627                15.5429
 628                15.5669
 629                15.5908
 630                15.6148
 631                15.6387
 632                15.6627
 633                15.6866
 634                15.7106
 635                15.7346
 636                15.7585
 637                15.7825
 638                15.8064
 639                15.8304
 640                15.8544
 641                15.8783
 642                15.9023
 643                15.9263
 644                15.9502
 645                15.9742
 646                15.9982
 647                16.0221
 648                16.0461
 649                16.0701
 650                16.0940
 651                16.1180
 652                16.1420
 653                16.1660
 654                16.1900
 655                16.2139
 656                16.2379
 657                16.2619
 658                16.2859
 659                16.3099
 660                16.3339
 661                16.3578
 662                16.3818
 663                16.4058
 664                16.4298
 665                16.4538
 666                16.4778
 667                16.5018
 668                16.5258
 669                16.5498
 670                16.5738
 671                16.5978
 672                16.6218
 673                16.6458
 674                16.6698
 675                16.6938
 676                16.7178
 677                16.7418
 678                16.7658
 679                16.7898
 680                16.8138
 681                16.8378
 682                16.8618
 683                16.8859
 684                16.9099
 685                16.9339
 686                16.9579
 687                16.9819
 688                17.0060
 689                17.0300
 690                17.0540
 691                17.0780
 692                17.1020
 693                17.1261
 694                17.1501
 695                17.1741
 696                17.1982
 697                17.2222
 698                17.2462
 699                17.2703
 700                17.2943
 701                17.3183
 702                17.3424
 703                17.3664
 704                17.3904
 705                17.4145
 706                17.4385
 707                17.4626
 708                17.4866
 709                17.5107
 710                17.5347
 711                17.5588
 712                17.5828
 713                17.6069
 714                17.6309
 715                17.6550
 716                17.6790
 717                17.7031
 718                17.7271
 719                17.7512
 720                17.7753
 721                17.7993
 722                17.8234
 723                17.8475
 724                17.8715
 725                17.8956
 726                17.9197
 727                17.9437
 728                17.9678
 729                17.9919
 730                18.0160
 731                18.0400
 732                18.0641
 733                18.0882
 734                18.1123
 735                18.1364
 736                18.1604
 737                18.1845
 738                18.2086
 739                18.2327
 740                18.2568
 741                18.2809
 742                18.3050
 743                18.3291
 744                18.3532
 745                18.3772
 746                18.4013
 747                18.4254
 748                18.4495
 749                18.4736
 750                18.4977
 751                18.5219
 752                18.5460
 753                18.5701
 754                18.5942
 755                18.6183
 756                18.6424
 757                18.6665
 758                18.6906
 759                18.7147
 760                18.7389
 761                18.7630
 762                18.7871
 763                18.8112
 764                18.8353
 765                18.8595
 766                18.8836
 767                18.9077
 768                18.9318
 769                18.9560
 770                18.9801
 771                19.0042
 772                19.0284
 773                19.0525
 774                19.0766
 775                19.1008
 776                19.1249
 777                19.1491
 778                19.1732
 779                19.1974
 780                19.2215
 781                19.2456
 782                19.2698
 783                19.2939
 784                19.3181
 785                19.3423
 786                19.3664
 787                19.3906
 788                19.4147
 789                19.4389
 790                19.4631
 791                19.4872
 792                19.5114
 793                19.5355
 794                19.5597
 795                19.5839
 796                19.6081
 797                19.6322
 798                19.6564
 799                19.6806
 800                19.7048
 801                19.7289
 802                19.7531
 803                19.7773
 804                19.8015
 805                19.8257
 806                19.8499
 807                19.8740
 808                19.8982
 809                19.9224
 810                19.9466
 811                19.9708
 812                19.9950
 813                20.0192
 814                20.0434
 815                20.0676
 816                20.0918
 817                20.1160
 818                20.1402
 819                20.1644
 820                20.1886
 821                20.2129
 822                20.2371
 823                20.2613
 824                20.2855
 825                20.3097
 826                20.3339
 827                20.3582
 828                20.3824
 829                20.4066
 830                20.4308
 831                20.4551
 832                20.4793
 833                20.5035
 834                20.5278
 835                20.5520
 836                20.5762
 837                20.6005
 838                20.6247
 839                20.6490
 840                20.6732
 841                20.6975
 842                20.7217
 843                20.7460
 844                20.7702
 845                20.7945
 846                20.8187
 847                20.8430
 848                20.8672
 849                20.8915
 850                20.9157
 851                20.9400
 852                20.9643
 853                20.9885
 854                21.0128
 855                21.0371
 856                21.0614
 857                21.0856
 858                21.1099
 859                21.1342
 860                21.1585
 861                21.1827
 862                21.2070
 863                21.2313
 864                21.2556
 865                21.2799
 866                21.3042
 867                21.3285
 868                21.3528
 869                21.3771
 870                21.4014
 871                21.4257
 872                21.4500
 873                21.4743
 874                21.4986
 875                21.5229
 876                21.5472
 877                21.5715
 878                21.5958
 879                21.6201
 880                21.6445
 881                21.6688
 882                21.6931
 883                21.7174
 884                21.7417
 885                21.7661
 886                21.7904
 887                21.8147
 888                21.8391
 889                21.8634
 890                21.8877
 891                21.9121
 892                21.9364
 893                21.9608
 894                21.9851
 895                22.0095
 896                22.0338
 897                22.0582
 898                22.0825
 899                22.1069
 900                22.1312
 901                22.1556
 902                22.1799
 903                22.2043
 904                22.2287
 905                22.2530
 906                22.2774
 907                22.3018
 908                22.3261
 909                22.3505
 910                22.3749
 911                22.3993
 912                22.4237
 913                22.4480
 914                22.4724
 915                22.4968
 916                22.5212
 917                22.5456
 918                22.5700
 919                22.5944
 920                22.6188
 921                22.6432
 922                22.6676
 923                22.6920
 924                22.7164
 925                22.7408
 926                22.7652
 927                22.7896
 928                22.8140
 929                22.8385
 930                22.8629
 931                22.8873
 932                22.9117
 933                22.9362
 934                22.9606
 935                22.9850
 936                23.0094
 937                23.0339
 938                23.0583
 939                23.0828
 940                23.1072
 941                23.1316
 942                23.1561
 943                23.1805
 944                23.2050
 945                23.2294
 946                23.2539
 947                23.2783
 948                23.3028
 949                23.3273
 950                23.3517
 951                23.3762
 952                23.4007
 953                23.4251
 954                23.4496
 955                23.4741
 956                23.4986
 957                23.5230
 958                23.5475
 959                23.5720
 960                23.5965
 961                23.6210
 962                23.6455
 963                23.6700
 964                23.6945
 965                23.7190
 966                23.7435
 967                23.7680
 968                23.7925
 969                23.8170
 970                23.8415
 971                23.8660
 972                23.8905
 973                23.9150
 974                23.9395
 975                23.9641
 976                23.9886
 977                24.0131
 978                24.0376
 979                24.0622
 980                24.0867
 981                24.1112
 982                24.1358
 983                24.1603
 984                24.1849
 985                24.2094
 986                24.2340
 987                24.2585
 988                24.2831
 989                24.3076
 990                24.3322
 991                24.3567
 992                24.3813
 993                24.4059
 994                24.4304
 995                24.4550
 996                24.4796
 997                24.5041
 998                24.5287
 999                24.5533
1000                24.5779
1001                24.6025
1002                24.6271
1003                24.6517
1004                24.6762
1005                24.7008
1006                24.7254
1007                24.7500
1008                24.7746
1009                24.7992
1010                24.8239
1011                24.8485
1012                24.8731
1013                24.8977
1014                24.9223
1015                24.9469
1016                24.9716
1017                24.9962
1018                25.0208
1019                25.0454
1020                25.0701
1021                25.0947
1022                25.1194
1023                25.1440
1024                25.1686
1025                25.1933
1026                25.2179
1027                25.2426
1028                25.2673
1029                25.2919
1030                25.3166
1031                25.3412
1032                25.3659
1033                25.3906
1034                25.4152
1035                25.4399
1036                25.4646
1037                25.4893
1038                25.5140
1039                25.5386
1040                25.5633
1041                25.5880
1042                25.6127
1043                25.6374
1044                25.6621
1045                25.6868
1046                25.7115
1047                25.7362
1048                25.7609
1049                25.7856
1050                25.8104
1051                25.8351
1052                25.8598
1053                25.8845
1054                25.9092
1055                25.9340
1056                25.9587
1057                25.9834
1058                26.0082
1059                26.0329
1060                26.0577
1061                26.0824
1062                26.1072
1063                26.1319
1064                26.1567
1065                26.1814
1066                26.2062
1067                26.2310
1068                26.2557
1069                26.2805
1070                26.3053
1071                26.3300
1072                26.3548
1073                26.3796
1074                26.4044
1075                26.4292
1076                26.4540
1077                26.4787
1078                26.5035
1079                26.5283
1080                26.5531
1081                26.5780
1082                26.6028
1083                26.6276
1084                26.6524
1085                26.6772
1086                26.7020
1087                26.7268
1088                26.7517
1089                26.7765
1090                26.8013
1091                26.8262
1092                26.8510
1093                26.8758
1094                26.9007
1095                26.9255
1096                26.9504
1097                26.9752
1098                27.0001
1099                27.0250
1100                27.0498
1101                27.0747
1102                27.0995
1103                27.1244
1104                27.1493
1105                27.1742
1106                27.1991
1107                27.2239
1108                27.2488
1109                27.2737
1110                27.2986
1111                27.3235
1112                27.3484
1113                27.3733
1114                27.3982
1115                27.4231
1116                27.4480
1117                27.4729
1118                27.4979
1119                27.5228
1120                27.5477
1121                27.5726
1122                27.5976
1123                27.6225
1124                27.6474
1125                27.6724
1126                27.6973
1127                27.7223
1128                27.7472
1129                27.7722
1130                27.7971
1131                27.8221
1132                27.8471
1133                27.8720
1134                27.8970
1135                27.9220
1136                27.9469
1137                27.9719
1138                27.9969
1139                28.0219
1140                28.0469
1141                28.0719
1142                28.0969
1143                28.1219
1144                28.1469
1145                28.1719
1146                28.1969
1147                28.2219
1148                28.2469
1149                28.2719
1150                28.2970
1151                28.3220
1152                28.3470
1153                28.3721
1154                28.3971
1155                28.4221
1156                28.4472
1157                28.4722
1158                28.4973
1159                28.5223
1160                28.5474
1161                28.5724
1162                28.5975
1163                28.6226
1164                28.6477
1165                28.6727
1166                28.6978
1167                28.7229
1168                28.7480
1169                28.7731
1170                28.7981
1171                28.8232
1172                28.8483
1173                28.8734
1174                28.8986
1175                28.9237
1176                28.9488
1177                28.9739
1178                28.9990
1179                29.0241
1180                29.0493
1181                29.0744
1182                29.0995
1183                29.1247
1184                29.1498
1185                29.1749
1186                29.2001
1187                29.2252
1188                29.2504
1189                29.2756
1190                29.3007
1191                29.3259
1192                29.3511
1193                29.3762
1194                29.4014
1195                29.4266
1196                29.4518
1197                29.4770
1198                29.5022
1199                29.5273
1200                29.5525
1201                29.5778
1202                29.6030
1203                29.6282
1204                29.6534
1205                29.6786
1206                29.7038
1207                29.7290
1208                29.7543
1209                29.7795
1210                29.8047
1211                29.8300
1212                29.8552
1213                29.8805
1214                29.9057
1215                29.9310
1216                29.9562
1217                29.9815
1218                30.0068
1219                30.0320
1220                30.0573
1221                30.0826
1222                30.1079
1223                30.1331
1224                30.1584
1225                30.1837
1226                30.2090
1227                30.2343
1228                30.2596
1229                30.2849
1230                30.3102
1231                30.3356
1232                30.3609
1233                30.3862
1234                30.4115
1235                30.4369
1236                30.4622
1237                30.4875
1238                30.5129
1239                30.5382
1240                30.5636
1241                30.5889
1242                30.6143
1243                30.6396
1244                30.6650
1245                30.6904
1246                30.7157
1247                30.7411
1248                30.7665
1249                30.7919
1250                30.8173
1251                30.8427
1252                30.8681
1253                30.8935
1254                30.9189
1255                30.9443
1256                30.9697
1257                30.9951
1258                31.0205
1259                31.0460
1260                31.0714
1261                31.0968
1262                31.1223
1263                31.1477
1264                31.1731
1265                31.1986
1266                31.2240
1267                31.2495
1268                31.2750
1269                31.3004
1270                31.3259
1271                31.3514
1272                31.3769
1273                31.4023
1274                31.4278
1275                31.4533
1276                31.4788
1277                31.5043
1278                31.5298
1279                31.5553
1280                31.5808
1281                31.6063
1282                31.6319
1283                31.6574
1284                31.6829
1285                31.7084
1286                31.7340
1287                31.7595
1288                31.7850
1289                31.8106
1290                31.8361
1291                31.8617
1292                31.8873
1293                31.9128
1294                31.9384
1295                31.9640
1296                31.9895
1297                32.0151
1298                32.0407
1299                32.0663
1300                32.0919
1301                32.1175
1302                32.1431
1303                32.1687
1304                32.1943
1305                32.2199
1306                32.2456
1307                32.2712
1308                32.2968
1309                32.3224
1310                32.3481
1311                32.3737
1312                32.3994
1313                32.4250
1314                32.4507
1315                32.4763
1316                32.5020
1317                32.5276
1318                32.5533
1319                32.5790
1320                32.6047
1321                32.6304
1322                32.6561
1323                32.6817
1324                32.7074
1325                32.7331
1326                32.7588
1327                32.7846
1328                32.8103
1329                32.8360
1330                32.8617
1331                32.8874
1332                32.9132
1333                32.9389
1334                32.9647
1335                32.9904
1336                33.0162
1337                33.0419
1338                33.0677
1339                33.0934
1340                33.1192
1341                33.1450
1342                33.1708
1343                33.1965
1344                33.2223
1345                33.2481
1346                33.2739
1347                33.2997
1348                33.3255
1349                33.3513
1350                33.3771
1351                33.4030
1352                33.4288
1353                33.4546
1354                33.4804
1355                33.5063
1356                33.5321
1357                33.5580
1358                33.5838
1359                33.6097
1360                33.6355
1361                33.6614
1362                33.6872
1363                33.7131
1364                33.7390
1365                33.7649
1366                33.7908
1367                33.8167
1368                33.8426
1369                33.8685
1370                33.8944
1371                33.9203
1372                33.9462
1373                33.9721
1374                33.9980
1375                34.0240
1376                34.0499
1377                34.0758
1378                34.1018
1379                34.1277
1380                34.1537
1381                34.1796
1382                34.2056
1383                34.2316
1384                34.2575
1385                34.2835
1386                34.3095
1387                34.3355
1388                34.3615
1389                34.3874
1390                34.4134
1391                34.4395
1392                34.4655
1393                34.4915
1394                34.5175
1395                34.5435
1396                34.5695
1397                34.5956
1398                34.6216
1399                34.6477
1400                34.6737
1401                34.6998
1402                34.7258
1403                34.7519
1404                34.7779
1405                34.8040
1406                34.8301
1407                34.8562
1408                34.8823
1409                34.9083
1410                34.9344
1411                34.9605
1412                34.9866
1413                35.0128
1414                35.0389
1415                35.0650
1416                35.0911
1417                35.1172
1418                35.1434
1419                35.1695
1420                35.1957
1421                35.2218
1422                35.2480
1423                35.2741
1424                35.3003
1425                35.3265
1426                35.3526
1427                35.3788
1428                35.4050
1429                35.4312
1430                35.4574
1431                35.4836
1432                35.5098
1433                35.5360
1434                35.5622
1435                35.5884
1436                35.6147
1437                35.6409
1438                35.6671
1439                35.6934
1440                35.7196
1441                35.7459
1442                35.7721
1443                35.7984
1444                35.8246
1445                35.8509
1446                35.8772
1447                35.9035
1448                35.9297
1449                35.9560
1450                35.9823
1451                36.0086
1452                36.0349
1453                36.0612
1454                36.0876
1455                36.1139
1456                36.1402
1457                36.1665
1458                36.1929
1459                36.2192
1460                36.2456
1461                36.2719
1462                36.2983
1463                36.3246
1464                36.3510
1465                36.3774
1466                36.4037
1467                36.4301
1468                36.4565
1469                36.4829
1470                36.5093
1471                36.5357
1472                36.5621
1473                36.5885
1474                36.6149
1475                36.6414
1476                36.6678
1477                36.6942
1478                36.7207
1479                36.7471
1480                36.7736
1481                36.8000
1482                36.8265
1483                36.8530
1484                36.8794
1485                36.9059
1486                36.9324
1487                36.9589
1488                36.9854
1489                37.0119
1490                37.0384
1491                37.0649
1492                37.0914
1493                37.1179
1494                37.1444
1495                37.1710
1496                37.1975
1497                37.2240
1498                37.2506
1499                37.2771
1500                37.3037
1501                37.3302
1502                37.3568
1503                37.3834
1504                37.4100
1505                37.4366
1506                37.4631
1507                37.4897
1508                37.5163
1509                37.5429
1510                37.5696
1511                37.5962
1512                37.6228
1513                37.6494
1514                37.6760
1515                37.7027
1516                37.7293
1517                37.7560
1518                37.7826
1519                37.8093
1520                37.8360
1521                37.8626
1522                37.8893
1523                37.9160
1524                37.9427
1525                37.9694
1526                37.9961
1527                38.0228
1528                38.0495
1529                38.0762
1530                38.1029
1531                38.1296
1532                38.1564
1533                38.1831
1534                38.2098
1535                38.2366
1536                38.2633
1537                38.2901
1538                38.3169
1539                38.3436
1540                38.3704
1541                38.3972
1542                38.4240
1543                38.4508
1544                38.4776
1545                38.5044
1546                38.5312
1547                38.5580
1548                38.5848
1549                38.6116
1550                38.6385
1551                38.6653
1552                38.6922
1553                38.7190
1554                38.7459
1555                38.7727
1556                38.7996
1557                38.8265
1558                38.8533
1559                38.8802
1560                38.9071
1561                38.9340
1562                38.9609
1563                38.9878
1564                39.0147
1565                39.0416
1566                39.0686
1567                39.0955
1568                39.1224
1569                39.1494
1570                39.1763
1571                39.2033
1572                39.2302
1573                39.2572
1574                39.2841
1575                39.3111
1576                39.3381
1577                39.3651
1578                39.3921
1579                39.4191
1580                39.4461
1581                39.4731
1582                39.5001
1583                39.5271
1584                39.5542
1585                39.5812
1586                39.6082
1587                39.6353
1588                39.6623
1589                39.6894
1590                39.7164
1591                39.7435
1592                39.7706
1593                39.7977
1594                39.8247
1595                39.8518
1596                39.8789
1597                39.9060
1598                39.9331
1599                39.9602
1600                39.9874
1601                40.0145
1602                40.0416
1603                40.0688
1604                40.0959
1605                40.1231
1606                40.1502
1607                40.1774
1608                40.2045
1609                40.2317
1610                40.2589
1611                40.2861
1612                40.3133
1613                40.3405
1614                40.3677
1615                40.3949
1616                40.4221
1617                40.4493
1618                40.4765
1619                40.5038
1620                40.5310
1621                40.5583
1622                40.5855
1623                40.6128
1624                40.6400
1625                40.6673
1626                40.6946
1627                40.7219
1628                40.7491
1629                40.7764
1630                40.8037
1631                40.8310
1632                40.8584
1633                40.8857
1634                40.9130
1635                40.9403
1636                40.9677
1637                40.9950
1638                41.0223
1639                41.0497
1640                41.0771
1641                41.1044
1642                41.1318
1643                41.1592
1644                41.1866
1645                41.2140
1646                41.2414
1647                41.2688
1648                41.2962
1649                41.3236
1650                41.3510
1651                41.3784
1652                41.4059
1653                41.4333
1654                41.4607
1655                41.4882
1656                41.5157
1657                41.5431
1658                41.5706
1659                41.5981
1660                41.6255
1661                41.6530
1662                41.6805
1663                41.7080
1664                41.7355
1665                41.7631
1666                41.7906
1667                41.8181
1668                41.8456
1669                41.8732
1670                41.9007
1671                41.9283
1672                41.9558
1673                41.9834
1674                42.0110
1675                42.0385
1676                42.0661
1677                42.0937
1678                42.1213
1679                42.1489
1680                42.1765
1681                42.2041
1682                42.2317
1683                42.2594
1684                42.2870
1685                42.3146
1686                42.3423
1687                42.3699
1688                42.3976
1689                42.4253
1690                42.4529
1691                42.4806
1692                42.5083
1693                42.5360
1694                42.5637
1695                42.5914
1696                42.6191
1697                42.6468
1698                42.6745
1699                42.7023
1700                42.7300
1701                42.7577
1702                42.7855
1703                42.8132
1704                42.8410
1705                42.8688
1706                42.8965
1707                42.9243
1708                42.9521
1709                42.9799
1710                43.0077
1711                43.0355
1712                43.0633
1713                43.0911
1714                43.1190
1715                43.1468
1716                43.1746
1717                43.2025
1718                43.2303
1719                43.2582
1720                43.2860
1721                43.3139
1722                43.3418
1723                43.3697
1724                43.3976
1725                43.4255
1726                43.4534
1727                43.4813
1728                43.5092
1729                43.5371
1730                43.5650
1731                43.5930
1732                43.6209
1733                43.6489
1734                43.6768
1735                43.7048
1736                43.7327
1737                43.7607
1738                43.7887
1739                43.8167
1740                43.8447
1741                43.8727
1742                43.9007
1743                43.9287
1744                43.9567
1745                43.9847
1746                44.0128
1747                44.0408
1748                44.0689
1749                44.0969
1750                44.1250
1751                44.1530
1752                44.1811
1753                44.2092
1754                44.2373
1755                44.2654
1756                44.2935
1757                44.3216
1758                44.3497
1759                44.3778
1760                44.4059
1761                44.4341
1762                44.4622
1763                44.4904
1764                44.5185
1765                44.5467
1766                44.5748
1767                44.6030
1768                44.6312
1769                44.6594
1770                44.6876
1771                44.7158
1772                44.7440
1773                44.7722
1774                44.8004
1775                44.8287
1776                44.8569
1777                44.8851
1778                44.9134
1779                44.9416
1780                44.9699
1781                44.9982
1782                45.0264
1783                45.0547
1784                45.0830
1785                45.1113
1786                45.1396
1787                45.1679
1788                45.1962
1789                45.2245
1790                45.2529
1791                45.2812
1792                45.3096
1793                45.3379
1794                45.3663
1795                45.3946
1796                45.4230
1797                45.4514
1798                45.4798
1799                45.5081
1800                45.5365
1801                45.5649
1802                45.5934
1803                45.6218
1804                45.6502
1805                45.6786
1806                45.7071
1807                45.7355
1808                45.7640
1809                45.7924
1810                45.8209
1811                45.8494
1812                45.8778
1813                45.9063
1814                45.9348
1815                45.9633
1816                45.9918
1817                46.0203
1818                46.0489
1819                46.0774
1820                46.1059
1821                46.1345
1822                46.1630
1823                46.1916
1824                46.2201
1825                46.2487
1826                46.2773
1827                46.3059
1828                46.3345
1829                46.3631
1830                46.3917
1831                46.4203
1832                46.4489
1833                46.4775
1834                46.5062
1835                46.5348
1836                46.5634
1837                46.5921
1838                46.6208
1839                46.6494
1840                46.6781
1841                46.7068
1842                46.7355
1843                46.7642
1844                46.7929
1845                46.8216
1846                46.8503
1847                46.8790
1848                46.9078
1849                46.9365
1850                46.9652
1851                46.9940
1852                47.0228
1853                47.0515
1854                47.0803
1855                47.1091
1856                47.1379
1857                47.1667
1858                47.1955
1859                47.2243
1860                47.2531
1861                47.2819
1862                47.3107
1863                47.3396
1864                47.3684
1865                47.3973
1866                47.4261
1867                47.4550
1868                47.4839
1869                47.5128
1870                47.5416
1871                47.5705
1872                47.5994
1873                47.6284
1874                47.6573
1875                47.6862
1876                47.7151
1877                47.7441
1878                47.7730
1879                47.8020
1880                47.8309
1881                47.8599
1882                47.8889
1883                47.9178
1884                47.9468
1885                47.9758
1886                48.0048
1887                48.0338
1888                48.0629
1889                48.0919
1890                48.1209
1891                48.1500
1892                48.1790
1893                48.2081
1894                48.2371
1895                48.2662
1896                48.2953
1897                48.3243
1898                48.3534
1899                48.3825
1900                48.4116
1901                48.4408
1902                48.4699
1903                48.4990
1904                48.5281
1905                48.5573
1906                48.5864
1907                48.6156
1908                48.6447
1909                48.6739
1910                48.7031
1911                48.7323
1912                48.7615
1913                48.7907
1914                48.8199
1915                48.8491
1916                48.8783
1917                48.9075
1918                48.9368
1919                48.9660
1920                48.9953
1921                49.0245
1922                49.0538
1923                49.0831
1924                49.1124
1925                49.1416
1926                49.1709
1927                49.2002
1928                49.2296
1929                49.2589
1930                49.2882
1931                49.3175
1932                49.3469
1933                49.3762
1934                49.4056
1935                49.4349
1936                49.4643
1937                49.4937
1938                49.5231
1939                49.5525
1940                49.5819
1941                49.6113
1942                49.6407
1943                49.6701
1944                49.6995
1945                49.7290
1946                49.7584
1947                49.7879
1948                49.8173
1949                49.8468
1950                49.8763
1951                49.9058
1952                49.9352
1953                49.9647
1954                49.9943
1955                50.0238
1956                50.0533
1957                50.0828
1958                50.1123
1959                50.1419
1960                50.1714
1961                50.2010
1962                50.2306
1963                50.2601
1964                50.2897
1965                50.3193
1966                50.3489
1967                50.3785
1968                50.4081
1969                50.4377
1970                50.4674
1971                50.4970
1972                50.5266
1973                50.5563
1974                50.5859
1975                50.6156
1976                50.6453
1977                50.6749
1978                50.7046
1979                50.7343
1980                50.7640
1981                50.7937
1982                50.8235
1983                50.8532
1984                50.8829
1985                50.9127
1986                50.9424
1987                50.9722
1988                51.0019
1989                51.0317
1990                51.0615
1991                51.0913
1992                51.1210
1993                51.1508
1994                51.1807
1995                51.2105
1996                51.2403
1997                51.2701
1998                51.3000
1999                51.3298
2000                51.3597
2001                51.3895
2002                51.4194
2003                51.4493
2004                51.4792
2005                51.5091
2006                51.5390
2007                51.5689
2008                51.5988
2009                51.6287
2010                51.6586
2011                51.6886
2012                51.7185
2013                51.7485
2014                51.7784
2015                51.8084
2016                51.8384
2017                51.8684
2018                51.8984
2019                51.9284
2020                51.9584
2021                51.9884
2022                52.0184
2023                52.0485
2024                52.0785
2025                52.1086
2026                52.1386
2027                52.1687
2028                52.1987
2029                52.2288
2030                52.2589
2031                52.2890
2032                52.3191
2033                52.3492
2034                52.3793
2035                52.4095
2036                52.4396
2037                52.4697
2038                52.4999
2039                52.5301
2040                52.5602
2041                52.5904
2042                52.6206
2043                52.6508
2044                52.6810
2045                52.7112
2046                52.7414
2047                52.7716
2048                52.8018
2049                52.8321
2050                52.8623
2051                52.8926
2052                52.9228
2053                52.9531
2054                52.9834
2055                53.0137
2056                53.0439
2057                53.0742
2058                53.1046
2059                53.1349
2060                53.1652
2061                53.1955
2062                53.2259
2063                53.2562
2064                53.2866
2065                53.3169
2066                53.3473
2067                53.3777
2068                53.4081
2069                53.4385
2070                53.4689
2071                53.4993
2072                53.5297
2073                53.5601
2074                53.5906
2075                53.6210
2076                53.6515
2077                53.6819
2078                53.7124
2079                53.7429
2080                53.7733
2081                53.8038
2082                53.8343
2083                53.8648
2084                53.8954
2085                53.9259
2086                53.9564
2087                53.9870
2088                54.0175
2089                54.0481
2090                54.0786
2091                54.1092
2092                54.1398
2093                54.1704
2094                54.2010
2095                54.2316
2096                54.2622
2097                54.2928
2098                54.3234
2099                54.3541
2100                54.3847
2101                54.4153
2102                54.4460
2103                54.4767
2104                54.5074
2105                54.5380
2106                54.5687
2107                54.5994
2108                54.6301
2109                54.6609
2110                54.6916
2111                54.7223
2112                54.7531
2113                54.7838
2114                54.8146
2115                54.8453
2116                54.8761
2117                54.9069
2118                54.9377
2119                54.9685
2120                54.9993
2121                55.0301
2122                55.0609
2123                55.0918
2124                55.1226
2125                55.1534
2126                55.1843
2127                55.2152
2128                55.2460
2129                55.2769
2130                55.3078
2131                55.3387
2132                55.3696
2133                55.4005
2134                55.4314
2135                55.4624
2136                55.4933
2137                55.5242
2138                55.5552
2139                55.5862
2140                55.6171
2141                55.6481
2142                55.6791
2143                55.7101
2144                55.7411
2145                55.7721
2146                55.8031
2147                55.8342
2148                55.8652
2149                55.8962
2150                55.9273
2151                55.9583
2152                55.9894
2153                56.0205
2154                56.0516
2155                56.0827
2156                56.1138
2157                56.1449
2158                56.1760
2159                56.2071
2160                56.2383
2161                56.2694
2162                56.3006
2163                56.3317
2164                56.3629
2165                56.3941
2166                56.4253
2167                56.4565
2168                56.4877
2169                56.5189
2170                56.5501
2171                56.5813
2172                56.6125
2173                56.6438
2174                56.6750
2175                56.7063
2176                56.7376
2177                56.7688
2178                56.8001
2179                56.8314
2180                56.8627
2181                56.8940
2182                56.9254
2183                56.9567
2184                56.9880
2185                57.0194
2186                57.0507
2187                57.0821
2188                57.1134
2189                57.1448
2190                57.1762
2191                57.2076
2192                57.2390
2193                57.2704
2194                57.3018
2195                57.3333
2196                57.3647
2197                57.3962
2198                57.4276
2199                57.4591
2200                57.4905
2201                57.5220
2202                57.5535
2203                57.5850
2204                57.6165
2205                57.6480
2206                57.6795
2207                57.7111
2208                57.7426
2209                57.7742
2210                57.8057
2211                57.8373
2212                57.8688
2213                57.9004
2214                57.9320
2215                57.9636
2216                57.9952
2217                58.0268
2218                58.0584
2219                58.0901
2220                58.1217
2221                58.1534
2222                58.1850
2223                58.2167
2224                58.2484
2225                58.2800
2226                58.3117
2227                58.3434
2228                58.3751
2229                58.4069
2230                58.4386
2231                58.4703
2232                58.5021
2233                58.5338
2234                58.5656
2235                58.5973
2236                58.6291
2237                58.6609
2238                58.6927
2239                58.7245
2240                58.7563
2241                58.7881
2242                58.8200
2243                58.8518
2244                58.8836
2245                58.9155
2246                58.9473
2247                58.9792
2248                59.0111
2249                59.0430
2250                59.0749
2251                59.1068
2252                59.1387
2253                59.1706
2254                59.2026
2255                59.2345
2256                59.2664
2257                59.2984
2258                59.3304
2259                59.3623
2260                59.3943
2261                59.4263
2262                59.4583
2263                59.4903
2264                59.5223
2265                59.5544
2266                59.5864
2267                59.6184
2268                59.6505
2269                59.6826
2270                59.7146
2271                59.7467
2272                59.7788
2273                59.8109
2274                59.8430
2275                59.8751
2276                59.9072
2277                59.9394
2278                59.9715
2279                60.0036
2280                60.0358
2281                60.0680
2282                60.1001
2283                60.1323
2284                60.1645
2285                60.1967
2286                60.2289
2287                60.2611
2288                60.2934
2289                60.3256
2290                60.3578
2291                60.3901
2292                60.4224
2293                60.4546
2294                60.4869
2295                60.5192
2296                60.5515
2297                60.5838
2298                60.6161
2299                60.6484
2300                60.6808
2301                60.7131
2302                60.7454
2303                60.7778
2304                60.8102
2305                60.8425
2306                60.8749
2307                60.9073
2308                60.9397
2309                60.9721
2310                61.0045
2311                61.0370
2312                61.0694
2313                61.1019
2314                61.1343
2315                61.1668
2316                61.1992
2317                61.2317
2318                61.2642
2319                61.2967
2320                61.3292
2321                61.3617
2322                61.3943
2323                61.4268
2324                61.4593
2325                61.4919
2326                61.5244
2327                61.5570
2328                61.5896
2329                61.6222
2330                61.6548
2331                61.6874
2332                61.7200
2333                61.7526
2334                61.7852
2335                61.8179
2336                61.8505
2337                61.8832
2338                61.9159
2339                61.9485
2340                61.9812
2341                62.0139
2342                62.0466
2343                62.0793
2344                62.1120
2345                62.1448
2346                62.1775
2347                62.2103
2348                62.2430
2349                62.2758
2350                62.3086
2351                62.3413
2352                62.3741
2353                62.4069
2354                62.4397
2355                62.4726
2356                62.5054
2357                62.5382
2358                62.5711
2359                62.6039
2360                62.6368
2361                62.6697
2362                62.7025
2363                62.7354
2364                62.7683
2365                62.8012
2366                62.8341
2367                62.8671
2368                62.9000
2369                62.9330
2370                62.9659
2371                62.9989
2372                63.0318
2373                63.0648
2374                63.0978
2375                63.1308
2376                63.1638
2377                63.1968
2378                63.2299
2379                63.2629
2380                63.2959
2381                63.3290
2382                63.3620
2383                63.3951
2384                63.4282
2385                63.4613
2386                63.4944
2387                63.5275
2388                63.5606
2389                63.5937
2390                63.6269
2391                63.6600
2392                63.6931
2393                63.7263
2394                63.7595
2395                63.7927
2396                63.8258
2397                63.8590
2398                63.8922
2399                63.9255
2400                63.9587
2401                63.9919
2402                64.0252
2403                64.0584
2404                64.0917
2405                64.1249
2406                64.1582
2407                64.1915
2408                64.2248
2409                64.2581
2410                64.2914
2411                64.3247
2412                64.3581
2413                64.3914
2414                64.4248
2415                64.4581
2416                64.4915
2417                64.5249
2418                64.5583
2419                64.5917
2420                64.6251
2421                64.6585
2422                64.6919
2423                64.7253
2424                64.7588
2425                64.7922
2426                64.8257
2427                64.8592
2428                64.8927
2429                64.9261
2430                64.9596
2431                64.9931
2432                65.0267
2433                65.0602
2434                65.0937
2435                65.1273
2436                65.1608
2437                65.1944
2438                65.2280
2439                65.2615
2440                65.2951
2441                65.3287
2442                65.3623
2443                65.3960
2444                65.4296
2445                65.4632
2446                65.4969
2447                65.5305
2448                65.5642
2449                65.5978
2450                65.6315
2451                65.6652
2452                65.6989
2453                65.7326
2454                65.7664
2455                65.8001
2456                65.8338
2457                65.8676
2458                65.9013
2459                65.9351
2460                65.9689
2461                66.0026
2462                66.0364
2463                66.0702
2464                66.1041
2465                66.1379
2466                66.1717
2467                66.2055
2468                66.2394
2469                66.2732
2470                66.3071
2471                66.3410
2472                66.3749
2473                66.4088
2474                66.4427
2475                66.4766
2476                66.5105
2477                66.5444
2478                66.5784
2479                66.6123
2480                66.6463
2481                66.6803
2482                66.7142
2483                66.7482
2484                66.7822
2485                66.8162
2486                66.8503
2487                66.8843
2488                66.9183
2489                66.9524
2490                66.9864
2491                67.0205
2492                67.0546
2493                67.0886
2494                67.1227
2495                67.1568
2496                67.1909
2497                67.2251
2498                67.2592
2499                67.2933
2500                67.3275
2501                67.3616
2502                67.3958
2503                67.4300
2504                67.4642
2505                67.4983
2506                67.5326
2507                67.5668
2508                67.6010
2509                67.6352
2510                67.6695
2511                67.7037
2512                67.7380
2513                67.7722
2514                67.8065
2515                67.8408
2516                67.8751
2517                67.9094
2518                67.9437
2519                67.9781
2520                68.0124
2521                68.0467
2522                68.0811
2523                68.1155
2524                68.1498
2525                68.1842
2526                68.2186
2527                68.2530
2528                68.2874
2529                68.3218
2530                68.3563
2531                68.3907
2532                68.4252
2533                68.4596
2534                68.4941
2535                68.5286
2536                68.5630
2537                68.5975
2538                68.6320
2539                68.6666
2540                68.7011
2541                68.7356
2542                68.7702
2543                68.8047
2544                68.8393
2545                68.8739
2546                68.9084
2547                68.9430
2548                68.9776
2549                69.0122
2550                69.0469
2551                69.0815
2552                69.1161
2553                69.1508
2554                69.1854
2555                69.2201
2556                69.2548
2557                69.2895
2558                69.3242
2559                69.3589
2560                69.3936
2561                69.4283
2562                69.4630
2563                69.4978
2564                69.5325
2565                69.5673
2566                69.6021
2567                69.6369
2568                69.6717
2569                69.7065
2570                69.7413
2571                69.7761
2572                69.8109
2573                69.8458
2574                69.8806
2575                69.9155
2576                69.9503
2577                69.9852
2578                70.0201
2579                70.0550
2580                70.0899
2581                70.1248
2582                70.1597
2583                70.1947
2584                70.2296
2585                70.2646
2586                70.2995
2587                70.3345
2588                70.3695
2589                70.4045
2590                70.4395
2591                70.4745
2592                70.5095
2593                70.5446
2594                70.5796
2595                70.6147
2596                70.6497
2597                70.6848
2598                70.7199
2599                70.7550
2600                70.7901
2601                70.8252
2602                70.8603
2603                70.8954
2604                70.9306
2605                70.9657
2606                71.0009
2607                71.0360
2608                71.0712
2609                71.1064
2610                71.1416
2611                71.1768
2612                71.2120
2613                71.2472
2614                71.2825
2615                71.3177
2616                71.3530
2617                71.3882
2618                71.4235
2619                71.4588
2620                71.4941
2621                71.5294
2622                71.5647
2623                71.6000
2624                71.6354
2625                71.6707
2626                71.7061
2627                71.7414
2628                71.7768
2629                71.8122
2630                71.8476
2631                71.8830
2632                71.9184
2633                71.9538
2634                71.9892
2635                72.0247
2636                72.0601
2637                72.0956
2638                72.1310
2639                72.1665
2640                72.2020
2641                72.2375
2642                72.2730
2643                72.3085
2644                72.3441
2645                72.3796
2646                72.4151
2647                72.4507
2648                72.4863
2649                72.5218
2650                72.5574
2651                72.5930
2652                72.6286
2653                72.6642
2654                72.6999
2655                72.7355
2656                72.7711
2657                72.8068
2658                72.8425
2659                72.8781
2660                72.9138
2661                72.9495
2662                72.9852
2663                73.0209
2664                73.0567
2665                73.0924
2666                73.1281
2667                73.1639
2668                73.1996
2669                73.2354
2670                73.2712
2671                73.3070
2672                73.3428
2673                73.3786
2674                73.4144
2675                73.4503
2676                73.4861
2677                73.5220
2678                73.5578
2679                73.5937
2680                73.6296
2681                73.6655
2682                73.7014
2683                73.7373
2684                73.7732
2685                73.8091
2686                73.8451
2687                73.8810
2688                73.9170
2689                73.9529
2690                73.9889
2691                74.0249
2692                74.0609
2693                74.0969
2694                74.1329
2695                74.1690
2696                74.2050
2697                74.2411
2698                74.2771
2699                74.3132
2700                74.3493
2701                74.3854
2702                74.4215
2703                74.4576
2704                74.4937
2705                74.5298
2706                74.5659
2707                74.6021
2708                74.6383
2709                74.6744
2710                74.7106
2711                74.7468
2712                74.7830
2713                74.8192
2714                74.8554
2715                74.8916
2716                74.9279
2717                74.9641
2718                75.0004
2719                75.0367
2720                75.0729
2721                75.1092
2722                75.1455
2723                75.1818
2724                75.2181
2725                75.2545
2726                75.2908
2727                75.3272
2728                75.3635
2729                75.3999
2730                75.4363
2731                75.4726
2732                75.5090
2733                75.5455
2734                75.5819
2735                75.6183
2736                75.6547
2737                75.6912
2738                75.7276
2739                75.7641
2740                75.8006
2741                75.8371
2742                75.8736
2743                75.9101
2744                75.9466
2745                75.9831
2746                76.0197
2747                76.0562
2748                76.0928
2749                76.1293
2750                76.1659
2751                76.2025
2752                76.2391
2753                76.2757
2754                76.3123
2755                76.3490
2756                76.3856
2757                76.4223
2758                76.4589
2759                76.4956
2760                76.5323
2761                76.5690
2762                76.6057
2763                76.6424
2764                76.6791
2765                76.7158
2766                76.7525
2767                76.7893
2768                76.8261
2769                76.8628
2770                76.8996
2771                76.9364
2772                76.9732
2773                77.0100
2774                77.0468
2775                77.0837
2776                77.1205
2777                77.1574
2778                77.1942
2779                77.2311
2780                77.2680
2781                77.3049
2782                77.3418
2783                77.3787
2784                77.4156
2785                77.4525
2786                77.4895
2787                77.5264
2788                77.5634
2789                77.6004
2790                77.6373
2791                77.6743
2792                77.7113
2793                77.7483
2794                77.7854
2795                77.8224
2796                77.8594
2797                77.8965
2798                77.9336
2799                77.9706
2800                78.0077
2801                78.0448
2802                78.0819
2803                78.1190
2804                78.1562
2805                78.1933
2806                78.2304
2807                78.2676
2808                78.3048
2809                78.3419
2810                78.3791
2811                78.4163
2812                78.4535
2813                78.4907
2814                78.5280
2815                78.5652
2816                78.6025
2817                78.6397
2818                78.6770
2819                78.7143
2820                78.7515
2821                78.7888
2822                78.8262
2823                78.8635
2824                78.9008
2825                78.9381
2826                78.9755
2827                79.0128
2828                79.0502
2829                79.0876
2830                79.1250
2831                79.1624
2832                79.1998
2833                79.2372
2834                79.2747
2835                79.3121
2836                79.3496
2837                79.3870
2838                79.4245
2839                79.4620
2840                79.4995
2841                79.5370
2842                79.5745
2843                79.6120
2844                79.6495
2845                79.6871
2846                79.7246
2847                79.7622
2848                79.7998
2849                79.8374
2850                79.8750
2851                79.9126
2852                79.9502
2853                79.9878
2854                80.0254
2855                80.0631
2856                80.1008
2857                80.1384
2858                80.1761
2859                80.2138
2860                80.2515
2861                80.2892
2862                80.3269
2863                80.3646
2864                80.4024
2865                80.4401
2866                80.4779
2867                80.5157
2868                80.5535
2869                80.5912
2870                80.6291
2871                80.6669
2872                80.7047
2873                80.7425
2874                80.7804
2875                80.8182
2876                80.8561
2877                80.8940
2878                80.9318
2879                80.9697
2880                81.0076
2881                81.0456
2882                81.0835
2883                81.1214
2884                81.1594
2885                81.1973
2886                81.2353
2887                81.2733
2888                81.3113
2889                81.3493
2890                81.3873
2891                81.4253
2892                81.4633
2893                81.5014
2894                81.5394
2895                81.5775
2896                81.6156
2897                81.6536
2898                81.6917
2899                81.7298
2900                81.7680
2901                81.8061
2902                81.8442
2903                81.8824
2904                81.9205
2905                81.9587
2906                81.9969
2907                82.0350
2908                82.0732
2909                82.1115
2910                82.1497
2911                82.1879
2912                82.2261
2913                82.2644
2914                82.3026
2915                82.3409
2916                82.3792
2917                82.4175
2918                82.4558
2919                82.4941
2920                82.5324
2921                82.5708
2922                82.6091
2923                82.6475
2924                82.6858
2925                82.7242
2926                82.7626
2927                82.8010
2928                82.8394
2929                82.8778
2930                82.9162
2931                82.9547
2932                82.9931
2933                83.0316
2934                83.0701
2935                83.1085
2936                83.1470
2937                83.1855
2938                83.2240
2939                83.2626
2940                83.3011
2941                83.3396
2942                83.3782
2943                83.4168
2944                83.4553
2945                83.4939
2946                83.5325
2947                83.5711
2948                83.6097
2949                83.6484
2950                83.6870
2951                83.7256
2952                83.7643
2953                83.8030
2954                83.8417
2955                83.8803
2956                83.9190
2957                83.9578
2958                83.9965
2959                84.0352
2960                84.0740
2961                84.1127
2962                84.1515
2963                84.1903
2964                84.2290
2965                84.2678
2966                84.3066
2967                84.3455
2968                84.3843
2969                84.4231
2970                84.4620
2971                84.5008
2972                84.5397
2973                84.5786
2974                84.6175
2975                84.6564
2976                84.6953
2977                84.7342
2978                84.7731
2979                84.8121
2980                84.8510
2981                84.8900
2982                84.9290
2983                84.9680
2984                85.0070
2985                85.0460
2986                85.0850
2987                85.1240
2988                85.1631
2989                85.2021
2990                85.2412
2991                85.2803
2992                85.3193
2993                85.3584
2994                85.3975
2995                85.4367
2996                85.4758
2997                85.5149
2998                85.5541
2999                85.5932
3000                85.6324
3001                85.6716
3002                85.7108
3003                85.7500
3004                85.7892
3005                85.8284
3006                85.8676
3007                85.9069
3008                85.9461
3009                85.9854
3010                86.0246
3011                86.0639
3012                86.1032
3013                86.1425
3014                86.1819
3015                86.2212
3016                86.2605
3017                86.2999
3018                86.3392
3019                86.3786
3020                86.4180
3021                86.4574
3022                86.4968
3023                86.5362
3024                86.5756
3025                86.6150
3026                86.6545
3027                86.6939
3028                86.7334
3029                86.7729
3030                86.8124
3031                86.8519
3032                86.8914
3033                86.9309
3034                86.9704
3035                87.0100
3036                87.0495
3037                87.0891
3038                87.1287
3039                87.1683
3040                87.2079
3041                87.2475
3042                87.2871
3043                87.3267
3044                87.3663
3045                87.4060
3046                87.4457
3047                87.4853
3048                87.5250
3049                87.5647
3050                87.6044
3051                87.6441
3052                87.6838
3053                87.7236
3054                87.7633
3055                87.8031
3056                87.8428
3057                87.8826
3058                87.9224
3059                87.9622
3060                88.0020
3061                88.0418
3062                88.0817
3063                88.1215
3064                88.1614
3065                88.2012
3066                88.2411
3067                88.2810
3068                88.3209
3069                88.3608
3070                88.4007
3071                88.4407
3072                88.4806
3073                88.5205
3074                88.5605
3075                88.6005
3076                88.6405
3077                88.6805
3078                88.7205
3079                88.7605
3080                88.8005
3081                88.8405
3082                88.8806
3083                88.9207
3084                88.9607
3085                89.0008
3086                89.0409
3087                89.0810
3088                89.1211
3089                89.1612
3090                89.2014
3091                89.2415
3092                89.2817
3093                89.3218
3094                89.3620
3095                89.4022
3096                89.4424
3097                89.4826
3098                89.5228
3099                89.5631
3100                89.6033
3101                89.6436
3102                89.6838
3103                89.7241
3104                89.7644
3105                89.8047
3106                89.8450
3107                89.8853
3108                89.9257
3109                89.9660
3110                90.0064
3111                90.0467
3112                90.0871
3113                90.1275
3114                90.1679
3115                90.2083
3116                90.2487
3117                90.2891
3118                90.3296
3119                90.3700
3120                90.4105
3121                90.4510
3122                90.4914
3123                90.5319
3124                90.5724
3125                90.6130
3126                90.6535
3127                90.6940
3128                90.7346
3129                90.7751
3130                90.8157
3131                90.8563
3132                90.8969
3133                90.9375
3134                90.9781
3135                91.0187
3136                91.0594
3137                91.1000
3138                91.1407
3139                91.1813
3140                91.2220
3141                91.2627
3142                91.3034
3143                91.3441
3144                91.3849
3145                91.4256
3146                91.4663
3147                91.5071
3148                91.5479
3149                91.5886
3150                91.6294
3151                91.6702
3152                91.7111
3153                91.7519
3154                91.7927
3155                91.8336
3156                91.8744
3157                91.9153
3158                91.9562
3159                91.9970
3160                92.0379
3161                92.0789
3162                92.1198
3163                92.1607
3164                92.2017
3165                92.2426
3166                92.2836
3167                92.3246
3168                92.3655
3169                92.4065
3170                92.4476
3171                92.4886
3172                92.5296
3173                92.5707
3174                92.6117
3175                92.6528
3176                92.6939
3177                92.7349
3178                92.7760
3179                92.8171
3180                92.8583
3181                92.8994
3182                92.9405
3183                92.9817
3184                93.0229
3185                93.0640
3186                93.1052
3187                93.1464
3188                93.1876
3189                93.2289
3190                93.2701
3191                93.3113
3192                93.3526
3193                93.3939
3194                93.4351
3195                93.4764
3196                93.5177
3197                93.5590
3198                93.6003
3199                93.6417
3200                93.6830
3201                93.7244
3202                93.7657
3203                93.8071
3204                93.8485
3205                93.8899
3206                93.9313
3207                93.9727
3208                94.0142
3209                94.0556
3210                94.0970
3211                94.1385
3212                94.1800
3213                94.2215
3214                94.2630
3215                94.3045
3216                94.3460
3217                94.3875
3218                94.4291
3219                94.4706
3220                94.5122
3221                94.5538
3222                94.5954
3223                94.6370
3224                94.6786
3225                94.7202
3226                94.7618
3227                94.8035
3228                94.8451
3229                94.8868
3230                94.9285
3231                94.9701
3232                95.0118
3233                95.0535
3234                95.0953
3235                95.1370
3236                95.1787
3237                95.2205
3238                95.2623
3239                95.3040
3240                95.3458
3241                95.3876
3242                95.4294
3243                95.4713
3244                95.5131
3245                95.5549
3246                95.5968
3247                95.6387
3248                95.6805
3249                95.7224
3250                95.7643
3251                95.8062
3252                95.8481
3253                95.8901
3254                95.9320
3255                95.9740
3256                96.0159
3257                96.0579
3258                96.0999
3259                96.1419
3260                96.1839
3261                96.2259
3262                96.2680
3263                96.3100
3264                96.3521
3265                96.3942
3266                96.4362
3267                96.4783
3268                96.5204
3269                96.5625
3270                96.6047
3271                96.6468
3272                96.6889
3273                96.7311
3274                96.7733
3275                96.8154
3276                96.8576
3277                96.8998
3278                96.9421
3279                96.9843
3280                97.0265
3281                97.0688
3282                97.1110
3283                97.1533
3284                97.1956
3285                97.2379
3286                97.2802
3287                97.3225
3288                97.3648
3289                97.4072
3290                97.4495
3291                97.4919
3292                97.5342
3293                97.5766
3294                97.6190
3295                97.6614
3296                97.7038
3297                97.7463
3298                97.7887
3299                97.8312
3300                97.8736
3301                97.9161
3302                97.9586
3303                98.0011
3304                98.0436
3305                98.0861
3306                98.1286
3307                98.1712
3308                98.2137
3309                98.2563
3310                98.2989
3311                98.3414
3312                98.3840
3313                98.4266
3314                98.4693
3315                98.5119
3316                98.5545
3317                98.5972
3318                98.6399
3319                98.6825
3320                98.7252
3321                98.7679
3322                98.8106
3323                98.8534
3324                98.8961
3325                98.9388
3326                98.9816
3327                99.0244
3328                99.0671
3329                99.1099
3330                99.1527
3331                99.1955
3332                99.2384
3333                99.2812
3334                99.3241
3335                99.3669
3336                99.4098
3337                99.4527
3338                99.4956
3339                99.5385
3340                99.5814
3341                99.6243
3342                99.6672
3343                99.7102
3344                99.7532
3345                99.7961
3346                99.8391
3347                99.8821
3348                99.9251
3349                99.9681
3350               100.0112
3351               100.0542
3352               100.0973
3353               100.1403
3354               100.1834
3355               100.2265
3356               100.2696
3357               100.3127
3358               100.3558
3359               100.3989
3360               100.4421
3361               100.4852
3362               100.5284
3363               100.5716
3364               100.6148
3365               100.6580
3366               100.7012
3367               100.7444
3368               100.7876
3369               100.8309
3370               100.8741
3371               100.9174
3372               100.9607
3373               101.0040
3374               101.0473
3375               101.0906
3376               101.1339
3377               101.1773
3378               101.2206
3379               101.2640
3380               101.3074
3381               101.3507
3382               101.3941
3383               101.4375
3384               101.4810
3385               101.5244
3386               101.5678
3387               101.6113
3388               101.6548
3389               101.6982
3390               101.7417
3391               101.7852
3392               101.8287
3393               101.8722
3394               101.9158
3395               101.9593
3396               102.0029
3397               102.0464
3398               102.0900
3399               102.1336
3400               102.1772
3401               102.2208
3402               102.2645
3403               102.3081
3404               102.3517
3405               102.3954
3406               102.4391
3407               102.4828
3408               102.5265
3409               102.5702
3410               102.6139
3411               102.6576
3412               102.7013
3413               102.7451
3414               102.7889
3415               102.8326
3416               102.8764
3417               102.9202
3418               102.9640
3419               103.0079
3420               103.0517
3421               103.0955
3422               103.1394
3423               103.1833
3424               103.2271
3425               103.2710
3426               103.3149
3427               103.3588
3428               103.4028
3429               103.4467
3430               103.4906
3431               103.5346
3432               103.5786
3433               103.6226
3434               103.6666
3435               103.7106
3436               103.7546
3437               103.7986
3438               103.8427
3439               103.8867
3440               103.9308
3441               103.9748
3442               104.0189
3443               104.0630
3444               104.1071
3445               104.1513
3446               104.1954
3447               104.2395
3448               104.2837
3449               104.3279
3450               104.3720
3451               104.4162
3452               104.4604
3453               104.5047
3454               104.5489
3455               104.5931
3456               104.6374
3457               104.6816
3458               104.7259
3459               104.7702
3460               104.8145
3461               104.8588
3462               104.9031
3463               104.9474
3464               104.9918
3465               105.0361
3466               105.0805
3467               105.1249
3468               105.1693
3469               105.2137
3470               105.2581
3471               105.3025
3472               105.3469
3473               105.3914
3474               105.4359
3475               105.4803
3476               105.5248
3477               105.5693
3478               105.6138
3479               105.6583
3480               105.7029
3481               105.7474
3482               105.7919
3483               105.8365
3484               105.8811
3485               105.9257
3486               105.9703
3487               106.0149
3488               106.0595
3489               106.1041
3490               106.1488
3491               106.1934
3492               106.2381
3493               106.2828
3494               106.3275
3495               106.3722
3496               106.4169
3497               106.4616
3498               106.5064
3499               106.5511
3500               106.5959
3501               106.6407
3502               106.6854
3503               106.7302
3504               106.7751
3505               106.8199
3506               106.8647
3507               106.9096
3508               106.9544
3509               106.9993
3510               107.0442
3511               107.0891
3512               107.1340
3513               107.1789
3514               107.2238
3515               107.2687
3516               107.3137
3517               107.3586
3518               107.4036
3519               107.4486
3520               107.4936
3521               107.5386
3522               107.5836
3523               107.6287
3524               107.6737
3525               107.7188
3526               107.7638
3527               107.8089
3528               107.8540
3529               107.8991
3530               107.9442
3531               107.9894
3532               108.0345
3533               108.0796
3534               108.1248
3535               108.1700
3536               108.2152
3537               108.2604
3538               108.3056
3539               108.3508
3540               108.3960
3541               108.4413
3542               108.4865
3543               108.5318
3544               108.5771
3545               108.6224
3546               108.6677
3547               108.7130
3548               108.7583
3549               108.8036
3550               108.8490
3551               108.8944
3552               108.9397
3553               108.9851
3554               109.0305
3555               109.0759
3556               109.1213
3557               109.1668
3558               109.2122
3559               109.2577
3560               109.3032
3561               109.3486
3562               109.3941
3563               109.4396
3564               109.4851
3565               109.5307
3566               109.5762
3567               109.6218
3568               109.6673
3569               109.7129
3570               109.7585
3571               109.8041
3572               109.8497
3573               109.8953
3574               109.9410
3575               109.9866
3576               110.0323
3577               110.0779
3578               110.1236
3579               110.1693
3580               110.2150
3581               110.2607
3582               110.3065
3583               110.3522
3584               110.3980
3585               110.4437
3586               110.4895
3587               110.5353
3588               110.5811
3589               110.6269
3590               110.6727
3591               110.7186
3592               110.7644
3593               110.8103
3594               110.8561
3595               110.9020
3596               110.9479
3597               110.9938
3598               111.0397
3599               111.0857
3600               111.1316
3601               111.1776
3602               111.2235
3603               111.2695
3604               111.3155
3605               111.3615
3606               111.4075
3607               111.4536
3608               111.4996
3609               111.5456
3610               111.5917
3611               111.6378
3612               111.6839
3613               111.7300
3614               111.7761
3615               111.8222
3616               111.8683
3617               111.9145
3618               111.9606
3619               112.0068
3620               112.0530
3621               112.0992
3622               112.1454
3623               112.1916
3624               112.2378
3625               112.2841
3626               112.3303
3627               112.3766
3628               112.4229
3629               112.4692
3630               112.5155
3631               112.5618
3632               112.6081
3633               112.6544
3634               112.7008
3635               112.7471
3636               112.7935
3637               112.8399
3638               112.8863
3639               112.9327
3640               112.9791
3641               113.0256
3642               113.0720
3643               113.1185
3644               113.1649
3645               113.2114
3646               113.2579
3647               113.3044
3648               113.3509
3649               113.3975
3650               113.4440
3651               113.4906
3652               113.5371
3653               113.5837
3654               113.6303
3655               113.6769
3656               113.7235
3657               113.7701
3658               113.8168
3659               113.8634
3660               113.9101
3661               113.9567
3662               114.0034
3663               114.0501
3664               114.0968
3665               114.1436
3666               114.1903
3667               114.2370
3668               114.2838
3669               114.3306
3670               114.3773
3671               114.4241
3672               114.4709
3673               114.5178
3674               114.5646
3675               114.6114
3676               114.6583
3677               114.7051
3678               114.7520
3679               114.7989
3680               114.8458
3681               114.8927
3682               114.9396
3683               114.9866
3684               115.0335
3685               115.0805
3686               115.1275
3687               115.1745
3688               115.2215
3689               115.2685
3690               115.3155
3691               115.3625
3692               115.4096
3693               115.4566
3694               115.5037
3695               115.5508
3696               115.5979
3697               115.6450
3698               115.6921
3699               115.7392
3700               115.7864
3701               115.8335
3702               115.8807
3703               115.9279
3704               115.9751
3705               116.0223
3706               116.0695
3707               116.1167
3708               116.1640
3709               116.2112
3710               116.2585
3711               116.3057
3712               116.3530
3713               116.4003
3714               116.4477
3715               116.4950
3716               116.5423
3717               116.5897
3718               116.6370
3719               116.6844
3720               116.7318
3721               116.7792
3722               116.8266
3723               116.8740
3724               116.9214
3725               116.9689
3726               117.0163
3727               117.0638
3728               117.1113
3729               117.1588
3730               117.2063
3731               117.2538
3732               117.3014
3733               117.3489
3734               117.3965
3735               117.4440
3736               117.4916
3737               117.5392
3738               117.5868
3739               117.6344
3740               117.6820
3741               117.7297
3742               117.7773
3743               117.8250
3744               117.8727
3745               117.9204
3746               117.9681
3747               118.0158
3748               118.0635
3749               118.1112
3750               118.1590
3751               118.2068
3752               118.2545
3753               118.3023
3754               118.3501
3755               118.3979
3756               118.4458
3757               118.4936
3758               118.5414
3759               118.5893
3760               118.6372
3761               118.6851
3762               118.7329
3763               118.7809
3764               118.8288
3765               118.8767
3766               118.9247
3767               118.9726
3768               119.0206
3769               119.0686
3770               119.1166
3771               119.1646
3772               119.2126
3773               119.2606
3774               119.3087
3775               119.3567
3776               119.4048
3777               119.4529
3778               119.5010
3779               119.5491
3780               119.5972
3781               119.6453
3782               119.6934
3783               119.7416
3784               119.7898
3785               119.8379
3786               119.8861
3787               119.9343
3788               119.9826
3789               120.0308
3790               120.0790
3791               120.1273
3792               120.1755
3793               120.2238
3794               120.2721
3795               120.3204
3796               120.3687
3797               120.4170
3798               120.4654
3799               120.5137
3800               120.5621
3801               120.6105
3802               120.6589
3803               120.7073
3804               120.7557
3805               120.8041
3806               120.8525
3807               120.9010
3808               120.9494
3809               120.9979
3810               121.0464
3811               121.0949
3812               121.1434
3813               121.1919
3814               121.2405
3815               121.2890
3816               121.3376
3817               121.3861
3818               121.4347
3819               121.4833
3820               121.5319
3821               121.5805
3822               121.6292
3823               121.6778
3824               121.7265
3825               121.7751
3826               121.8238
3827               121.8725
3828               121.9212
3829               121.9699
3830               122.0187
3831               122.0674
3832               122.1162
3833               122.1649
3834               122.2137
3835               122.2625
3836               122.3113
3837               122.3601
3838               122.4090
3839               122.4578
3840               122.5067
3841               122.5555
3842               122.6044
3843               122.6533
3844               122.7022
3845               122.7511
3846               122.8001
3847               122.8490
3848               122.8980
3849               122.9469
3850               122.9959
3851               123.0449
3852               123.0939
3853               123.1429
3854               123.1919
3855               123.2410
3856               123.2900
3857               123.3391
3858               123.3882
3859               123.4373
3860               123.4864
3861               123.5355
3862               123.5846
3863               123.6338
3864               123.6829
3865               123.7321
3866               123.7812
3867               123.8304
3868               123.8796
3869               123.9289
3870               123.9781
3871               124.0273
3872               124.0766
3873               124.1258
3874               124.1751
3875               124.2244
3876               124.2737
3877               124.3230
3878               124.3723
3879               124.4217
3880               124.4710
3881               124.5204
3882               124.5698
3883               124.6192
3884               124.6686
3885               124.7180
3886               124.7674
3887               124.8168
3888               124.8663
3889               124.9157
3890               124.9652
3891               125.0147
3892               125.0642
3893               125.1137
3894               125.1632
3895               125.2128
3896               125.2623
3897               125.3119
3898               125.3615
3899               125.4111
3900               125.4607
3901               125.5103
3902               125.5599
3903               125.6095
3904               125.6592
3905               125.7088
3906               125.7585
3907               125.8082
3908               125.8579
3909               125.9076
3910               125.9573
3911               126.0071
3912               126.0568
3913               126.1066
3914               126.1564
3915               126.2062
3916               126.2560
3917               126.3058
3918               126.3556
3919               126.4054
3920               126.4553
3921               126.5051
3922               126.5550
3923               126.6049
3924               126.6548
3925               126.7047
3926               126.7546
3927               126.8046
3928               126.8545
3929               126.9045
3930               126.9545
3931               127.0045
3932               127.0545
3933               127.1045
3934               127.1545
3935               127.2045
3936               127.2546
3937               127.3046
3938               127.3547
3939               127.4048
3940               127.4549
3941               127.5050
3942               127.5551
3943               127.6053
3944               127.6554
3945               127.7056
3946               127.7558
3947               127.8060
3948               127.8562
3949               127.9064
3950               127.9566
3951               128.0068
3952               128.0571
3953               128.1074
3954               128.1576
3955               128.2079
3956               128.2582
3957               128.3085
3958               128.3589
3959               128.4092
3960               128.4596
3961               128.5099
3962               128.5603
3963               128.6107
3964               128.6611
3965               128.7115
3966               128.7619
3967               128.8124
3968               128.8628
3969               128.9133
3970               128.9638
3971               129.0143
3972               129.0648
3973               129.1153
3974               129.1658
3975               129.2163
3976               129.2669
3977               129.3175
3978               129.3680
3979               129.4186
3980               129.4692
3981               129.5199
3982               129.5705
3983               129.6211
3984               129.6718
3985               129.7224
3986               129.7731
3987               129.8238
3988               129.8745
3989               129.9252
3990               129.9760
3991               130.0267
3992               130.0775
3993               130.1282
3994               130.1790
3995               130.2298
3996               130.2806
3997               130.3314
3998               130.3823
3999               130.4331
4000               130.4840
4001               130.5348
4002               130.5857
4003               130.6366
4004               130.6875
4005               130.7384
4006               130.7894
4007               130.8403
4008               130.8913
4009               130.9422
4010               130.9932
4011               131.0442
4012               131.0952
4013               131.1463
4014               131.1973
4015               131.2483
4016               131.2994
4017               131.3505
4018               131.4016
4019               131.4526
4020               131.5038
4021               131.5549
4022               131.6060
4023               131.6572
4024               131.7083
4025               131.7595
4026               131.8107
4027               131.8619
4028               131.9131
4029               131.9643
4030               132.0156
4031               132.0668
4032               132.1181
4033               132.1693
4034               132.2206
4035               132.2719
4036               132.3232
4037               132.3746
4038               132.4259
4039               132.4773
4040               132.5286
4041               132.5800
4042               132.6314
4043               132.6828
4044               132.7342
4045               132.7856
4046               132.8371
4047               132.8885
4048               132.9400
4049               132.9915
4050               133.0430
4051               133.0945
4052               133.1460
4053               133.1975
4054               133.2491
4055               133.3006
4056               133.3522
4057               133.4038
4058               133.4554
4059               133.5070
4060               133.5586
4061               133.6102
4062               133.6619
4063               133.7135
4064               133.7652
4065               133.8169
4066               133.8686
4067               133.9203
4068               133.9720
4069               134.0237
4070               134.0755
4071               134.1272
4072               134.1790
4073               134.2308
4074               134.2826
4075               134.3344
4076               134.3862
4077               134.4381
4078               134.4899
4079               134.5418
4080               134.5937
4081               134.6455
4082               134.6974
4083               134.7494
4084               134.8013
4085               134.8532
4086               134.9052
4087               134.9571
4088               135.0091
4089               135.0611
4090               135.1131
4091               135.1651
4092               135.2172
4093               135.2692
4094               135.3213
4095               135.3733
4096               135.4254
4097               135.4775
4098               135.5296
4099               135.5817
4100               135.6339
4101               135.6860
4102               135.7382
4103               135.7903
4104               135.8425
4105               135.8947
4106               135.9469
4107               135.9991
4108               136.0514
4109               136.1036
4110               136.1559
4111               136.2081
4112               136.2604
4113               136.3127
4114               136.3650
4115               136.4174
4116               136.4697
4117               136.5221
4118               136.5744
4119               136.6268
4120               136.6792
4121               136.7316
4122               136.7840
4123               136.8364
4124               136.8889
4125               136.9413
4126               136.9938
4127               137.0463
4128               137.0988
4129               137.1513
4130               137.2038
4131               137.2563
4132               137.3088
4133               137.3614
4134               137.4140
4135               137.4666
4136               137.5192
4137               137.5718
4138               137.6244
4139               137.6770
4140               137.7297
4141               137.7823
4142               137.8350
4143               137.8877
4144               137.9404
4145               137.9931
4146               138.0458
4147               138.0985
4148               138.1513
4149               138.2041
4150               138.2568
4151               138.3096
4152               138.3624
4153               138.4152
4154               138.4681
4155               138.5209
4156               138.5738
4157               138.6266
4158               138.6795
4159               138.7324
4160               138.7853
4161               138.8382
4162               138.8912
4163               138.9441
4164               138.9971
4165               139.0500
4166               139.1030
4167               139.1560
4168               139.2090
4169               139.2620
4170               139.3151
4171               139.3681
4172               139.4212
4173               139.4742
4174               139.5273
4175               139.5804
4176               139.6335
4177               139.6867
4178               139.7398
4179               139.7930
4180               139.8461
4181               139.8993
4182               139.9525
4183               140.0057
4184               140.0589
4185               140.1121
4186               140.1654
4187               140.2186
4188               140.2719
4189               140.3252
4190               140.3785
4191               140.4318
4192               140.4851
4193               140.5384
4194               140.5918
4195               140.6452
4196               140.6985
4197               140.7519
4198               140.8053
4199               140.8587
4200               140.9121
4201               140.9656
4202               141.0190
4203               141.0725
4204               141.1260
4205               141.1795
4206               141.2330
4207               141.2865
4208               141.3400
4209               141.3936
4210               141.4471
4211               141.5007
4212               141.5543
4213               141.6079
4214               141.6615
4215               141.7151
4216               141.7687
4217               141.8224
4218               141.8760
4219               141.9297
4220               141.9834
4221               142.0371
4222               142.0908
4223               142.1445
4224               142.1982
4225               142.2520
4226               142.3058
4227               142.3595
4228               142.4133
4229               142.4671
4230               142.5209
4231               142.5748
4232               142.6286
4233               142.6825
4234               142.7363
4235               142.7902
4236               142.8441
4237               142.8980
4238               142.9519
4239               143.0059
4240               143.0598
4241               143.1138
4242               143.1678
4243               143.2217
4244               143.2757
4245               143.3298
4246               143.3838
4247               143.4378
4248               143.4919
4249               143.5459
4250               143.6000
4251               143.6541
4252               143.7082
4253               143.7623
4254               143.8165
4255               143.8706
4256               143.9248
4257               143.9789
4258               144.0331
4259               144.0873
4260               144.1415
4261               144.1957
4262               144.2500
4263               144.3042
4264               144.3585
4265               144.4128
4266               144.4670
4267               144.5213
4268               144.5757
4269               144.6300
4270               144.6843
4271               144.7387
4272               144.7930
4273               144.8474
4274               144.9018
4275               144.9562
4276               145.0106
4277               145.0651
4278               145.1195
4279               145.1740
4280               145.2284
4281               145.2829
4282               145.3374
4283               145.3919
4284               145.4465
4285               145.5010
4286               145.5556
4287               145.6101
4288               145.6647
4289               145.7193
4290               145.7739
4291               145.8285
4292               145.8831
4293               145.9378
4294               145.9924
4295               146.0471
4296               146.1018
4297               146.1565
4298               146.2112
4299               146.2659
4300               146.3207
4301               146.3754
4302               146.4302
4303               146.4849
4304               146.5397
4305               146.5945
4306               146.6493
4307               146.7042
4308               146.7590
4309               146.8139
4310               146.8687
4311               146.9236
4312               146.9785
4313               147.0334
4314               147.0883
4315               147.1433
4316               147.1982
4317               147.2532
4318               147.3081
4319               147.3631
4320               147.4181
4321               147.4731
4322               147.5282
4323               147.5832
4324               147.6383
4325               147.6933
4326               147.7484
4327               147.8035
4328               147.8586
4329               147.9137
4330               147.9689
4331               148.0240
4332               148.0792
4333               148.1343
4334               148.1895
4335               148.2447
4336               148.2999
4337               148.3552
4338               148.4104
4339               148.4656
4340               148.5209
4341               148.5762
4342               148.6315
4343               148.6868
4344               148.7421
4345               148.7974
4346               148.8528
4347               148.9081
4348               148.9635
4349               149.0189
4350               149.0743
4351               149.1297
4352               149.1851
4353               149.2406
4354               149.2960
4355               149.3515
4356               149.4070
4357               149.4624
4358               149.5179
4359               149.5735
4360               149.6290
4361               149.6845
4362               149.7401
4363               149.7957
4364               149.8513
4365               149.9069
4366               149.9625
4367               150.0181
4368               150.0737
4369               150.1294
4370               150.1850
4371               150.2407
4372               150.2964
4373               150.3521
4374               150.4078
4375               150.4636
4376               150.5193
4377               150.5751
4378               150.6308
4379               150.6866
4380               150.7424
4381               150.7982
4382               150.8540
4383               150.9099
4384               150.9657
4385               151.0216
4386               151.0775
4387               151.1334
4388               151.1893
4389               151.2452
4390               151.3011
4391               151.3571
4392               151.4130
4393               151.4690
4394               151.5250
4395               151.5810
4396               151.6370
4397               151.6930
4398               151.7490
4399               151.8051
4400               151.8611
4401               151.9172
4402               151.9733
4403               152.0294
4404               152.0855
4405               152.1417
4406               152.1978
4407               152.2540
4408               152.3101
4409               152.3663
4410               152.4225
4411               152.4787
4412               152.5350
4413               152.5912
4414               152.6474
4415               152.7037
4416               152.7600
4417               152.8163
4418               152.8726
4419               152.9289
4420               152.9852
4421               153.0416
4422               153.0979
4423               153.1543
4424               153.2107
4425               153.2671
4426               153.3235
4427               153.3799
4428               153.4364
4429               153.4928
4430               153.5493
4431               153.6058
4432               153.6623
4433               153.7188
4434               153.7753
4435               153.8318
4436               153.8884
4437               153.9449
4438               154.0015
4439               154.0581
4440               154.1147
4441               154.1713
4442               154.2279
4443               154.2846
4444               154.3412
4445               154.3979
4446               154.4546
4447               154.5113
4448               154.5680
4449               154.6247
4450               154.6814
4451               154.7382
4452               154.7949
4453               154.8517
4454               154.9085
4455               154.9653
4456               155.0221
4457               155.0790
4458               155.1358
4459               155.1927
4460               155.2495
4461               155.3064
4462               155.3633
4463               155.4202
4464               155.4771
4465               155.5341
4466               155.5910
4467               155.6480
4468               155.7050
4469               155.7620
4470               155.8190
4471               155.8760
4472               155.9330
4473               155.9901
4474               156.0471
4475               156.1042
4476               156.1613
4477               156.2184
4478               156.2755
4479               156.3326
4480               156.3898
4481               156.4469
4482               156.5041
4483               156.5613
4484               156.6184
4485               156.6757
4486               156.7329
4487               156.7901
4488               156.8474
4489               156.9046
4490               156.9619
4491               157.0192
4492               157.0765
4493               157.1338
4494               157.1911
4495               157.2485
4496               157.3058
4497               157.3632
4498               157.4206
4499               157.4780
4500               157.5354
4501               157.5928
4502               157.6502
4503               157.7077
4504               157.7652
4505               157.8226
4506               157.8801
4507               157.9376
4508               157.9952
4509               158.0527
4510               158.1102
4511               158.1678
4512               158.2254
4513               158.2829
4514               158.3405
4515               158.3982
4516               158.4558
4517               158.5134
4518               158.5711
4519               158.6287
4520               158.6864
4521               158.7441
4522               158.8018
4523               158.8596
4524               158.9173
4525               158.9750
4526               159.0328
4527               159.0906
4528               159.1484
4529               159.2062
4530               159.2640
4531               159.3218
4532               159.3797
4533               159.4375
4534               159.4954
4535               159.5533
4536               159.6112
4537               159.6691
4538               159.7270
4539               159.7850
4540               159.8429
4541               159.9009
4542               159.9589
4543               160.0169
4544               160.0749
4545               160.1329
4546               160.1909
4547               160.2490
4548               160.3070
4549               160.3651
4550               160.4232
4551               160.4813
4552               160.5394
4553               160.5975
4554               160.6557
4555               160.7138
4556               160.7720
4557               160.8302
4558               160.8884
4559               160.9466
4560               161.0048
4561               161.0631
4562               161.1213
4563               161.1796
4564               161.2379
4565               161.2962
4566               161.3545
4567               161.4128
4568               161.4711
4569               161.5295
4570               161.5878
4571               161.6462
4572               161.7046
4573               161.7630
4574               161.8214
4575               161.8799
4576               161.9383
4577               161.9968
4578               162.0552
4579               162.1137
4580               162.1722
4581               162.2307
4582               162.2893
4583               162.3478
4584               162.4064
4585               162.4649
4586               162.5235
4587               162.5821
4588               162.6407
4589               162.6993
4590               162.7580
4591               162.8166
4592               162.8753
4593               162.9340
4594               162.9927
4595               163.0514
4596               163.1101
4597               163.1688
4598               163.2276
4599               163.2863
4600               163.3451
4601               163.4039
4602               163.4627
4603               163.5215
4604               163.5803
4605               163.6392
4606               163.6980
4607               163.7569
4608               163.8158
4609               163.8747
4610               163.9336
4611               163.9925
4612               164.0514
4613               164.1104
4614               164.1694
4615               164.2283
4616               164.2873
4617               164.3463
4618               164.4054
4619               164.4644
4620               164.5234
4621               164.5825
4622               164.6416
4623               164.7007
4624               164.7598
4625               164.8189
4626               164.8780
4627               164.9372
4628               164.9963
4629               165.0555
4630               165.1147
4631               165.1739
4632               165.2331
4633               165.2923
4634               165.3515
4635               165.4108
4636               165.4701
4637               165.5294
4638               165.5886
4639               165.6480
4640               165.7073
4641               165.7666
4642               165.8260
4643               165.8853
4644               165.9447
4645               166.0041
4646               166.0635
4647               166.1229
4648               166.1824
4649               166.2418
4650               166.3013
4651               166.3607
4652               166.4202
4653               166.4797
4654               166.5393
4655               166.5988
4656               166.6583
4657               166.7179
4658               166.7775
4659               166.8370
4660               166.8966
4661               166.9563
4662               167.0159
4663               167.0755
4664               167.1352
4665               167.1948
4666               167.2545
4667               167.3142
4668               167.3739
4669               167.4337
4670               167.4934
4671               167.5531
4672               167.6129
4673               167.6727
4674               167.7325
4675               167.7923
4676               167.8521
4677               167.9119
4678               167.9718
4679               168.0316
4680               168.0915
4681               168.1514
4682               168.2113
4683               168.2712
4684               168.3312
4685               168.3911
4686               168.4511
4687               168.5110
4688               168.5710
4689               168.6310
4690               168.6910
4691               168.7511
4692               168.8111
4693               168.8712
4694               168.9312
4695               168.9913
4696               169.0514
4697               169.1115
4698               169.1717
4699               169.2318
4700               169.2920
4701               169.3521
4702               169.4123
4703               169.4725
4704               169.5327
4705               169.5929
4706               169.6532
4707               169.7134
4708               169.7737
4709               169.8340
4710               169.8942
4711               169.9546
4712               170.0149
4713               170.0752
4714               170.1356
4715               170.1959
4716               170.2563
4717               170.3167
4718               170.3771
4719               170.4375
4720               170.4979
4721               170.5584
4722               170.6188
4723               170.6793
4724               170.7398
4725               170.8003
4726               170.8608
4727               170.9213
4728               170.9819
4729               171.0424
4730               171.1030
4731               171.1636
4732               171.2242
4733               171.2848
4734               171.3454
4735               171.4061
4736               171.4667
4737               171.5274
4738               171.5881
4739               171.6488
4740               171.7095
4741               171.7702
4742               171.8309
4743               171.8917
4744               171.9525
4745               172.0132
4746               172.0740
4747               172.1348
4748               172.1957
4749               172.2565
4750               172.3173
4751               172.3782
4752               172.4391
4753               172.5000
4754               172.5609
4755               172.6218
4756               172.6827
4757               172.7437
4758               172.8046
4759               172.8656
4760               172.9266
4761               172.9876
4762               173.0486
4763               173.1097
4764               173.1707
4765               173.2318
4766               173.2928
4767               173.3539
4768               173.4150
4769               173.4761
4770               173.5373
4771               173.5984
4772               173.6596
4773               173.7207
4774               173.7819
4775               173.8431
4776               173.9043
4777               173.9656
4778               174.0268
4779               174.0880
4780               174.1493
4781               174.2106
4782               174.2719
4783               174.3332
4784               174.3945
4785               174.4559
4786               174.5172
4787               174.5786
4788               174.6400
4789               174.7014
4790               174.7628
4791               174.8242
4792               174.8856
4793               174.9471
4794               175.0086
4795               175.0700
4796               175.1315
4797               175.1930
4798               175.2546
4799               175.3161
4800               175.3776
4801               175.4392
4802               175.5008
4803               175.5624
4804               175.6240
4805               175.6856
4806               175.7472
4807               175.8089
4808               175.8705
4809               175.9322
4810               175.9939
4811               176.0556
4812               176.1173
4813               176.1791
4814               176.2408
4815               176.3026
4816               176.3643
4817               176.4261
4818               176.4879
4819               176.5497
4820               176.6116
4821               176.6734
4822               176.7353
4823               176.7972
4824               176.8590
4825               176.9209
4826               176.9829
4827               177.0448
4828               177.1067
4829               177.1687
4830               177.2307
4831               177.2926
4832               177.3546
4833               177.4167
4834               177.4787
4835               177.5407
4836               177.6028
4837               177.6649
4838               177.7269
4839               177.7890
4840               177.8511
4841               177.9133
4842               177.9754
4843               178.0376
4844               178.0997
4845               178.1619
4846               178.2241
4847               178.2863
4848               178.3486
4849               178.4108
4850               178.4730
4851               178.5353
4852               178.5976
4853               178.6599
4854               178.7222
4855               178.7845
4856               178.8469
4857               178.9092
4858               178.9716
4859               179.0340
4860               179.0964
4861               179.1588
4862               179.2212
4863               179.2836
4864               179.3461
4865               179.4086
4866               179.4710
4867               179.5335
4868               179.5960
4869               179.6586
4870               179.7211
4871               179.7836
4872               179.8462
4873               179.9088
4874               179.9714
4875               180.0340
4876               180.0966
4877               180.1592
4878               180.2219
4879               180.2846
4880               180.3472
4881               180.4099
4882               180.4726
4883               180.5354
4884               180.5981
4885               180.6608
4886               180.7236
4887               180.7864
4888               180.8492
4889               180.9120
4890               180.9748
4891               181.0376
4892               181.1005
4893               181.1633
4894               181.2262
4895               181.2891
4896               181.3520
4897               181.4149
4898               181.4779
4899               181.5408
4900               181.6038
4901               181.6668
4902               181.7297
4903               181.7927
4904               181.8558
4905               181.9188
4906               181.9818
4907               182.0449
4908               182.1080
4909               182.1711
4910               182.2342
4911               182.2973
4912               182.3604
4913               182.4236
4914               182.4867
4915               182.5499
4916               182.6131
4917               182.6763
4918               182.7395
4919               182.8027
4920               182.8660
4921               182.9293
4922               182.9925
4923               183.0558
4924               183.1191
4925               183.1824
4926               183.2458
4927               183.3091
4928               183.3725
4929               183.4359
4930               183.4992
4931               183.5626
4932               183.6261
4933               183.6895
4934               183.7529
4935               183.8164
4936               183.8799
4937               183.9434
4938               184.0069
4939               184.0704
4940               184.1339
4941               184.1975
4942               184.2610
4943               184.3246
4944               184.3882
4945               184.4518
4946               184.5154
4947               184.5790
4948               184.6427
4949               184.7063
4950               184.7700
4951               184.8337
4952               184.8974
4953               184.9611
4954               185.0248
4955               185.0886
4956               185.1524
4957               185.2161
4958               185.2799
4959               185.3437
4960               185.4075
4961               185.4714
4962               185.5352
4963               185.5991
4964               185.6629
4965               185.7268
4966               185.7907
4967               185.8546
4968               185.9186
4969               185.9825
4970               186.0465
4971               186.1105
4972               186.1744
4973               186.2385
4974               186.3025
4975               186.3665
4976               186.4305
4977               186.4946
4978               186.5587
4979               186.6228
4980               186.6869
4981               186.7510
4982               186.8151
4983               186.8793
4984               186.9434
4985               187.0076
4986               187.0718
4987               187.1360
4988               187.2002
4989               187.2644
4990               187.3287
4991               187.3930
4992               187.4572
4993               187.5215
4994               187.5858
4995               187.6501
4996               187.7145
4997               187.7788
4998               187.8432
4999               187.9076
5000               187.9719
5001               188.0363
5002               188.1008
5003               188.1652
5004               188.2296
5005               188.2941
5006               188.3586
5007               188.4231
5008               188.4876
5009               188.5521
5010               188.6166
5011               188.6812
5012               188.7457
5013               188.8103
5014               188.8749
5015               188.9395
5016               189.0041
5017               189.0688
5018               189.1334
5019               189.1981
5020               189.2628
5021               189.3275
5022               189.3922
5023               189.4569
5024               189.5216
5025               189.5864
5026               189.6511
5027               189.7159
5028               189.7807
5029               189.8455
5030               189.9103
5031               189.9752
5032               190.0400
5033               190.1049
5034               190.1698
5035               190.2346
5036               190.2996
5037               190.3645
5038               190.4294
5039               190.4944
5040               190.5593
5041               190.6243
5042               190.6893
5043               190.7543
5044               190.8193
5045               190.8844
5046               190.9494
5047               191.0145
5048               191.0796
5049               191.1447
5050               191.2098
5051               191.2749
5052               191.3400
5053               191.4052
5054               191.4704
5055               191.5355
5056               191.6007
5057               191.6659
5058               191.7312
5059               191.7964
5060               191.8617
5061               191.9269
5062               191.9922
5063               192.0575
5064               192.1228
5065               192.1882
5066               192.2535
5067               192.3188
5068               192.3842
5069               192.4496
5070               192.5150
5071               192.5804
5072               192.6458
5073               192.7113
5074               192.7767
5075               192.8422
5076               192.9077
5077               192.9732
5078               193.0387
5079               193.1042
5080               193.1698
5081               193.2353
5082               193.3009
5083               193.3665
5084               193.4321
5085               193.4977
5086               193.5633
5087               193.6290
5088               193.6946
5089               193.7603
5090               193.8260
5091               193.8917
5092               193.9574
5093               194.0232
5094               194.0889
5095               194.1547
5096               194.2204
5097               194.2862
5098               194.3520
5099               194.4179
5100               194.4837
5101               194.5495
5102               194.6154
5103               194.6813
5104               194.7472
5105               194.8131
5106               194.8790
5107               194.9449
5108               195.0109
5109               195.0768
5110               195.1428
5111               195.2088
5112               195.2748
5113               195.3408
5114               195.4069
5115               195.4729
5116               195.5390
5117               195.6051
5118               195.6712
5119               195.7373
5120               195.8034
5121               195.8695
5122               195.9357
5123               196.0019
5124               196.0680
5125               196.1342
5126               196.2004
5127               196.2667
5128               196.3329
5129               196.3992
5130               196.4654
5131               196.5317
5132               196.5980
5133               196.6643
5134               196.7307
5135               196.7970
5136               196.8634
5137               196.9297
5138               196.9961
5139               197.0625
5140               197.1289
5141               197.1954
5142               197.2618
5143               197.3283
5144               197.3947
5145               197.4612
5146               197.5277
5147               197.5942
5148               197.6608
5149               197.7273
5150               197.7939
5151               197.8604
5152               197.9270
5153               197.9936
5154               198.0603
5155               198.1269
5156               198.1935
5157               198.2602
5158               198.3269
5159               198.3936
5160               198.4603
5161               198.5270
5162               198.5937
5163               198.6605
5164               198.7272
5165               198.7940
5166               198.8608
5167               198.9276
5168               198.9944
5169               199.0613
5170               199.1281
5171               199.1950
5172               199.2619
5173               199.3288
5174               199.3957
5175               199.4626
5176               199.5296
5177               199.5965
5178               199.6635
5179               199.7305
5180               199.7975
5181               199.8645
5182               199.9315
5183               199.9985
5184               200.0656
5185               200.1327
5186               200.1998
5187               200.2669
5188               200.3340
5189               200.4011
5190               200.4683
5191               200.5354
5192               200.6026
5193               200.6698
5194               200.7370
5195               200.8042
5196               200.8714
5197               200.9387
5198               201.0059
5199               201.0732
5200               201.1405
5201               201.2078
5202               201.2751
5203               201.3425
5204               201.4098
5205               201.4772
5206               201.5446
5207               201.6119
5208               201.6794
5209               201.7468
5210               201.8142
5211               201.8817
5212               201.9491
5213               202.0166
5214               202.0841
5215               202.1516
5216               202.2192
5217               202.2867
5218               202.3542
5219               202.4218
5220               202.4894
5221               202.5570
5222               202.6246
5223               202.6922
5224               202.7599
5225               202.8275
5226               202.8952
5227               202.9629
5228               203.0306
5229               203.0983
5230               203.1661
5231               203.2338
5232               203.3016
5233               203.3693
5234               203.4371
5235               203.5049
5236               203.5727
5237               203.6406
5238               203.7084
5239               203.7763
5240               203.8442
5241               203.9121
5242               203.9800
5243               204.0479
5244               204.1158
5245               204.1838
5246               204.2517
5247               204.3197
5248               204.3877
5249               204.4557
5250               204.5238
5251               204.5918
5252               204.6599
5253               204.7279
5254               204.7960
5255               204.8641
5256               204.9322
5257               205.0004
5258               205.0685
5259               205.1367
5260               205.2048
5261               205.2730
5262               205.3412
5263               205.4094
5264               205.4777
5265               205.5459
5266               205.6142
5267               205.6824
5268               205.7507
5269               205.8190
5270               205.8874
5271               205.9557
5272               206.0240
5273               206.0924
5274               206.1608
5275               206.2292
5276               206.2976
5277               206.3660
5278               206.4345
5279               206.5029
5280               206.5714
5281               206.6399
5282               206.7084
5283               206.7769
5284               206.8454
5285               206.9139
5286               206.9825
5287               207.0511
5288               207.1196
5289               207.1882
5290               207.2569
5291               207.3255
5292               207.3941
5293               207.4628
5294               207.5315
5295               207.6002
5296               207.6689
5297               207.7376
5298               207.8063
5299               207.8751
5300               207.9438
5301               208.0126
5302               208.0814
5303               208.1502
5304               208.2190
5305               208.2879
5306               208.3567
5307               208.4256
5308               208.4945
5309               208.5634
5310               208.6323
5311               208.7012
5312               208.7701
5313               208.8391
5314               208.9081
5315               208.9770
5316               209.0460
5317               209.1151
5318               209.1841
5319               209.2531
5320               209.3222
5321               209.3913
5322               209.4604
5323               209.5295
5324               209.5986
5325               209.6677
5326               209.7369
5327               209.8060
5328               209.8752
5329               209.9444
5330               210.0136
5331               210.0828
5332               210.1521
5333               210.2213
5334               210.2906
5335               210.3599
5336               210.4292
5337               210.4985
5338               210.5678
5339               210.6371
5340               210.7065
5341               210.7759
5342               210.8452
5343               210.9146
5344               210.9841
5345               211.0535
5346               211.1229
5347               211.1924
5348               211.2619
5349               211.3314
5350               211.4009
5351               211.4704
5352               211.5399
5353               211.6095
5354               211.6790
5355               211.7486
5356               211.8182
5357               211.8878
5358               211.9574
5359               212.0271
5360               212.0967
5361               212.1664
5362               212.2361
5363               212.3058
5364               212.3755
5365               212.4452
5366               212.5149
5367               212.5847
5368               212.6545
5369               212.7243
5370               212.7941
5371               212.8639
5372               212.9337
5373               213.0036
5374               213.0734
5375               213.1433
5376               213.2132
5377               213.2831
5378               213.3530
5379               213.4229
5380               213.4929
5381               213.5629
5382               213.6328
5383               213.7028
5384               213.7729
5385               213.8429
5386               213.9129
5387               213.9830
5388               214.0530
5389               214.1231
5390               214.1932
5391               214.2633
5392               214.3335
5393               214.4036
5394               214.4738
5395               214.5439
5396               214.6141
5397               214.6843
5398               214.7546
5399               214.8248
5400               214.8950
5401               214.9653
5402               215.0356
5403               215.1059
5404               215.1762
5405               215.2465
5406               215.3168
5407               215.3872
5408               215.4576
5409               215.5279
5410               215.5983
5411               215.6688
5412               215.7392
5413               215.8096
5414               215.8801
5415               215.9506
5416               216.0210
5417               216.0915
5418               216.1621
5419               216.2326
5420               216.3031
5421               216.3737
5422               216.4443
5423               216.5149
5424               216.5855
5425               216.6561
5426               216.7267
5427               216.7974
5428               216.8681
5429               216.9387
5430               217.0094
5431               217.0802
5432               217.1509
5433               217.2216
5434               217.2924
5435               217.3632
5436               217.4339
5437               217.5047
5438               217.5756
5439               217.6464
5440               217.7172
5441               217.7881
5442               217.8590
5443               217.9299
5444               218.0008
5445               218.0717
5446               218.1426
5447               218.2136
5448               218.2845
5449               218.3555
5450               218.4265
5451               218.4975
5452               218.5686
5453               218.6396
5454               218.7107
5455               218.7817
5456               218.8528
5457               218.9239
5458               218.9950
5459               219.0662
5460               219.1373
5461               219.2085
5462               219.2796
5463               219.3508
5464               219.4220
5465               219.4933
5466               219.5645
5467               219.6358
5468               219.7070
5469               219.7783
5470               219.8496
5471               219.9209
5472               219.9922
5473               220.0636
5474               220.1349
5475               220.2063
5476               220.2777
5477               220.3491
5478               220.4205
5479               220.4919
5480               220.5634
5481               220.6348
5482               220.7063
5483               220.7778
5484               220.8493
5485               220.9208
5486               220.9924
5487               221.0639
5488               221.1355
5489               221.2071
5490               221.2787
5491               221.3503
5492               221.4219
5493               221.4936
5494               221.5652
5495               221.6369
5496               221.7086
5497               221.7803
5498               221.8520
5499               221.9237
5500               221.9955
5501               222.0672
5502               222.1390
5503               222.2108
5504               222.2826
5505               222.3544
5506               222.4263
5507               222.4981
5508               222.5700
5509               222.6419
5510               222.7138
5511               222.7857
5512               222.8576
5513               222.9296
5514               223.0015
5515               223.0735
5516               223.1455
5517               223.2175
5518               223.2895
5519               223.3615
5520               223.4336
5521               223.5056
5522               223.5777
5523               223.6498
5524               223.7219
5525               223.7940
5526               223.8662
5527               223.9383
5528               224.0105
5529               224.0827
5530               224.1549
5531               224.2271
5532               224.2993
5533               224.3716
5534               224.4438
5535               224.5161
5536               224.5884
5537               224.6607
5538               224.7330
5539               224.8054
5540               224.8777
5541               224.9501
5542               225.0225
5543               225.0949
5544               225.1673
5545               225.2397
5546               225.3121
5547               225.3846
5548               225.4571
5549               225.5295
5550               225.6020
5551               225.6746
5552               225.7471
5553               225.8196
5554               225.8922
5555               225.9648
5556               226.0374
5557               226.1100
5558               226.1826
5559               226.2552
5560               226.3279
5561               226.4006
5562               226.4732
5563               226.5459
5564               226.6186
5565               226.6914
5566               226.7641
5567               226.8369
5568               226.9096
5569               226.9824
5570               227.0552
5571               227.1281
5572               227.2009
5573               227.2737
5574               227.3466
5575               227.4195
5576               227.4924
5577               227.5653
5578               227.6382
5579               227.7112
5580               227.7841
5581               227.8571
5582               227.9301
5583               228.0031
5584               228.0761
5585               228.1491
5586               228.2222
5587               228.2952
5588               228.3683
5589               228.4414
5590               228.5145
5591               228.5876
5592               228.6607
5593               228.7339
5594               228.8071
5595               228.8803
5596               228.9534
5597               229.0267
5598               229.0999
5599               229.1731
5600               229.2464
5601               229.3197
5602               229.3930
5603               229.4663
5604               229.5396
5605               229.6129
5606               229.6863
5607               229.7596
5608               229.8330
5609               229.9064
5610               229.9798
5611               230.0532
5612               230.1267
5613               230.2001
5614               230.2736
5615               230.3471
5616               230.4206
5617               230.4941
5618               230.5676
5619               230.6412
5620               230.7147
5621               230.7883
5622               230.8619
5623               230.9355
5624               231.0091
5625               231.0828
5626               231.1564
5627               231.2301
5628               231.3038
5629               231.3775
5630               231.4512
5631               231.5249
5632               231.5987
5633               231.6724
5634               231.7462
5635               231.8200
5636               231.8938
5637               231.9676
5638               232.0414
5639               232.1153
5640               232.1892
5641               232.2630
5642               232.3369
5643               232.4108
5644               232.4848
5645               232.5587
5646               232.6327
5647               232.7066
5648               232.7806
5649               232.8546
5650               232.9287
5651               233.0027
5652               233.0767
5653               233.1508
5654               233.2249
5655               233.2990
5656               233.3731
5657               233.4472
5658               233.5213
5659               233.5955
5660               233.6697
5661               233.7439
5662               233.8181
5663               233.8923
5664               233.9665
5665               234.0407
5666               234.1150
5667               234.1893
5668               234.2636
5669               234.3379
5670               234.4122
5671               234.4865
5672               234.5609
5673               234.6353
5674               234.7097
5675               234.7841
5676               234.8585
5677               234.9329
5678               235.0073
5679               235.0818
5680               235.1563
5681               235.2308
5682               235.3053
5683               235.3798
5684               235.4543
5685               235.5289
5686               235.6034
5687               235.6780
5688               235.7526
5689               235.8272
5690               235.9019
5691               235.9765
5692               236.0512
5693               236.1258
5694               236.2005
5695               236.2752
5696               236.3500
5697               236.4247
5698               236.4994
5699               236.5742
5700               236.6490
5701               236.7238
5702               236.7986
5703               236.8734
5704               236.9483
5705               237.0231
5706               237.0980
5707               237.1729
5708               237.2478
5709               237.3227
5710               237.3976
5711               237.4726
5712               237.5475
5713               237.6225
5714               237.6975
5715               237.7725
5716               237.8475
5717               237.9226
5718               237.9976
5719               238.0727
5720               238.1478
5721               238.2229
5722               238.2980
5723               238.3732
5724               238.4483
5725               238.5235
5726               238.5986
5727               238.6738
5728               238.7490
5729               238.8243
5730               238.8995
5731               238.9748
5732               239.0500
5733               239.1253
5734               239.2006
5735               239.2759
5736               239.3513
5737               239.4266
5738               239.5020
5739               239.5773
5740               239.6527
5741               239.7281
5742               239.8036
5743               239.8790
5744               239.9545
5745               240.0299
5746               240.1054
5747               240.1809
5748               240.2564
5749               240.3320
5750               240.4075
5751               240.4831
5752               240.5586
5753               240.6342
5754               240.7098
5755               240.7855
5756               240.8611
5757               240.9368
5758               241.0124
5759               241.0881
5760               241.1638
5761               241.2395
5762               241.3153
5763               241.3910
5764               241.4668
5765               241.5425
5766               241.6183
5767               241.6941
5768               241.7700
5769               241.8458
5770               241.9216
5771               241.9975
5772               242.0734
5773               242.1493
5774               242.2252
5775               242.3011
5776               242.3771
5777               242.4530
5778               242.5290
5779               242.6050
5780               242.6810
5781               242.7570
5782               242.8331
5783               242.9091
5784               242.9852
5785               243.0613
5786               243.1374
5787               243.2135
5788               243.2896
5789               243.3658
5790               243.4419
5791               243.5181
5792               243.5943
5793               243.6705
5794               243.7467
5795               243.8230
5796               243.8992
5797               243.9755
5798               244.0518
5799               244.1281
5800               244.2044
5801               244.2807
5802               244.3570
5803               244.4334
5804               244.5098
5805               244.5862
5806               244.6626
5807               244.7390
5808               244.8154
5809               244.8919
5810               244.9684
5811               245.0448
5812               245.1213
5813               245.1979
5814               245.2744
5815               245.3509
5816               245.4275
5817               245.5041
5818               245.5806
5819               245.6573
5820               245.7339
5821               245.8105
5822               245.8872
5823               245.9638
5824               246.0405
5825               246.1172
5826               246.1939
5827               246.2707
5828               246.3474
5829               246.4242
5830               246.5009
5831               246.5777
5832               246.6545
5833               246.7314
5834               246.8082
5835               246.8851
5836               246.9619
5837               247.0388
5838               247.1157
5839               247.1926
5840               247.2695
5841               247.3465
5842               247.4235
5843               247.5004
5844               247.5774
5845               247.6544
5846               247.7315
5847               247.8085
5848               247.8855
5849               247.9626
5850               248.0397
5851               248.1168
5852               248.1939
5853               248.2710
5854               248.3482
5855               248.4253
5856               248.5025
5857               248.5797
5858               248.6569
5859               248.7341
5860               248.8114
5861               248.8886
5862               248.9659
5863               249.0432
5864               249.1205
5865               249.1978
5866               249.2751
5867               249.3525
5868               249.4299
5869               249.5072
5870               249.5846
5871               249.6620
5872               249.7395
5873               249.8169
5874               249.8944
5875               249.9718
5876               250.0493
5877               250.1268
5878               250.2043
5879               250.2819
5880               250.3594
5881               250.4370
5882               250.5145
5883               250.5921
5884               250.6698
5885               250.7474
5886               250.8250
5887               250.9027
5888               250.9803
5889               251.0580
5890               251.1357
5891               251.2135
5892               251.2912
5893               251.3689
5894               251.4467
5895               251.5245
5896               251.6023
5897               251.6801
5898               251.7579
5899               251.8358
5900               251.9136
5901               251.9915
5902               252.0694
5903               252.1473
5904               252.2252
5905               252.3031
5906               252.3811
5907               252.4590
5908               252.5370
5909               252.6150
5910               252.6930
5911               252.7711
5912               252.8491
5913               252.9272
5914               253.0052
5915               253.0833
5916               253.1614
5917               253.2395
5918               253.3177
5919               253.3958
5920               253.4740
5921               253.5522
5922               253.6304
5923               253.7086
5924               253.7868
5925               253.8651
5926               253.9433
5927               254.0216
5928               254.0999
5929               254.1782
5930               254.2565
5931               254.3349
5932               254.4132
5933               254.4916
5934               254.5700
5935               254.6484
5936               254.7268
5937               254.8052
5938               254.8837
5939               254.9621
5940               255.0406
5941               255.1191
5942               255.1976
5943               255.2761
5944               255.3547
5945               255.4332
5946               255.5118
5947               255.5904
5948               255.6690
5949               255.7476
5950               255.8262
5951               255.9049
5952               255.9835
5953               256.0622
5954               256.1409
5955               256.2196
5956               256.2983
5957               256.3771
5958               256.4558
5959               256.5346
5960               256.6134
5961               256.6922
5962               256.7710
5963               256.8499
5964               256.9287
5965               257.0076
5966               257.0865
5967               257.1654
5968               257.2443
5969               257.3232
5970               257.4021
5971               257.4811
5972               257.5601
5973               257.6391
5974               257.7181
5975               257.7971
5976               257.8761
5977               257.9552
5978               258.0342
5979               258.1133
5980               258.1924
5981               258.2715
5982               258.3507
5983               258.4298
5984               258.5090
5985               258.5881
5986               258.6673
5987               258.7465
5988               258.8258
5989               258.9050
5990               258.9843
5991               259.0635
5992               259.1428
5993               259.2221
5994               259.3014
5995               259.3808
5996               259.4601
5997               259.5395
5998               259.6189
5999               259.6983
6000               259.7777
